Wavelength,0212202100007.asd
350, 3519.48428549298 
351, 3699.01921644024 
352, 3864.65278019779 
353, 4008.58947935339 
354, 4156.31512189439 
355, 4310.59023442361 
356, 4468.04991161881 
357, 4627.20246779975 
358, 4791.85279366809 
359, 4970.32179201632 
360, 5174.03939085991 
361, 5417.98298051121 
362, 5689.87133262567 
363, 5977.5248051362 
364, 6271.55443075139 
365, 6569.92165821865 
366, 6853.57394874748 
367, 7099.22403095144 
368, 7282.50164898016 
369, 7387.34578605748 
370, 7426.1476601545 
371, 7425.43384142533 
372, 7411.48963844724 
373, 7413.81156794895 
374, 7435.67874015689 
375, 7461.71365392379 
376, 7491.35888301926 
377, 7505.60991734459 
378, 7485.55404753843 
379, 7415.88842236151 
380, 7330.88010195805 
381, 7235.72399613776 
382, 7127.80168649795 
383, 7001.87092481511 
384, 6879.47851410907 
385, 6807.34119652426 
386, 6838.0532778985 
387, 6991.46208839684 
388, 7178.93541567168 
389, 7332.1225785263 
390, 7420.69122161538 
391, 7520.08105674773 
392, 7603.0287262667 
393, 7658.40142007773 
394, 7745.37278670338 
395, 7947.30516115975 
396, 8304.7516434676 
397, 8830.34389268292 
398, 9527.33479183763 
399, 10314.3670046342 
400, 11124.7831617067 
401, 11910.3683635463 
402, 12633.4171410867 
403, 13229.2153822471 
404, 13675.9644891483 
405, 14029.7185612995 
406, 14312.219091591 
407, 14573.4419223237 
408, 14870.731723446 
409, 15255.1121697524 
410, 15706.1060763992 
411, 16200.9718373479 
412, 16716.5004360135 
413, 17229.776083735 
414, 17733.2544590179 
415, 18213.3828366638 
416, 18639.0110386253 
417, 19055.9312883827 
418, 19482.9708754379 
419, 19916.3975423509 
420, 20299.8862687298 
421, 20694.2498066784 
422, 21122.4601855937 
423, 21569.7954268198 
424, 21977.8431508999 
425, 22300.0567774666 
426, 22487.9739783747 
427, 22477.839649397 
428, 22417.9425675683 
429, 22489.4488672936 
430, 22812.3802163744 
431, 23243.5275585572 
432, 23833.6868887146 
433, 24694.168814775 
434, 25925.0295549347 
435, 27146.4135563872 
436, 28081.3258868943 
437, 28703.8590855834 
438, 29364.0235989063 
439, 30030.2671091149 
440, 30666.6543582791 
441, 31268.1919443833 
442, 32012.8270717982 
443, 32774.7957978041 
444, 33469.056717735 
445, 34055.3478563833 
446, 34530.2016580219 
447, 34968.2982948905 
448, 35440.3006571773 
449, 36000.4189181253 
450, 36441.526917996 
451, 36663.7535035008 
452, 36653.5668579026 
453, 36566.1617157329 
454, 36378.0851048719 
455, 36145.7069296335 
456, 35995.8638925373 
457, 35965.5867373163 
458, 35983.1783457187 
459, 35971.1185440882 
460, 35886.9667891077 
461, 35758.1717835517 
462, 35615.1004100857 
463, 35469.0955830658 
464, 35228.589191842 
465, 34866.5873834596 
466, 34432.7739447558 
467, 34046.9453141571 
468, 33716.6745246115 
469, 33478.2296902131 
470, 33349.1923956675 
471, 33306.0066488183 
472, 33285.8216082458 
473, 33293.8176219624 
474, 33351.4200749185 
475, 33345.2825850758 
476, 33323.4990554413 
477, 33325.1895400146 
478, 33359.0782455502 
479, 33486.773616724 
480, 33649.0481912401 
481, 33750.4338812843 
482, 33712.5727712177 
483, 33434.123935285 
484, 32872.7823358001 
485, 32071.7234465789 
486, 31347.5191062458 
487, 30869.529518728 
488, 30772.8547448982 
489, 31194.6336659172 
490, 31773.0434689755 
491, 32222.0458990479 
492, 32384.2157806152 
493, 32454.4265488949 
494, 32568.340117542 
495, 32774.7831073233 
496, 33029.9982117249 
497, 33099.2122556749 
498, 32997.1878993716 
499, 32787.1747792122 
500, 32512.2198263907 
501, 32325.3447438978 
502, 32276.0609803797 
503, 32375.7683224525 
504, 32719.2956717007 
505, 33160.6903041846 
506, 33582.7413890845 
507, 33921.3247960832 
508, 34176.0757345707 
509, 34381.1941704833 
510, 34583.0282214626 
511, 34847.6140733043 
512, 35018.1699456384 
513, 35038.8140266523 
514, 34911.8257555837 
515, 34602.6500908932 
516, 34199.8307951411 
517, 33833.5002893915 
518, 33659.3790331184 
519, 34022.7887277942 
520, 34914.1981403749 
521, 36096.3318596228 
522, 37042.8716624736 
523, 37746.7559349039 
524, 38245.3826581008 
525, 38601.2263399291 
526, 38739.1139392632 
527, 38807.2953235249 
528, 39057.4923249379 
529, 39917.8611160234 
530, 40973.7524698837 
531, 41808.8224614169 
532, 42119.8832416371 
533, 42231.9138505599 
534, 42452.7497033735 
535, 42924.4731330593 
536, 43594.0455168997 
537, 44045.6921303202 
538, 44234.1379706821 
539, 44248.5203177968 
540, 44238.8919731676 
541, 44298.611806468 
542, 44563.4710237747 
543, 45136.0381959984 
544, 45746.3042722651 
545, 46260.9400425526 
546, 46614.4143051442 
547, 46810.2598323905 
548, 46946.8874500213 
549, 47121.5326847847 
550, 47386.1639932336 
551, 47639.7165444507 
552, 47832.6262235254 
553, 47979.5247520921 
554, 48141.5789832264 
555, 48264.7526458738 
556, 48214.4074651104 
557, 47923.444056138 
558, 47464.7395723889 
559, 47099.7988492819 
560, 46968.1055211782 
561, 47101.4313014371 
562, 47342.97726542 
563, 47468.9176918503 
564, 47382.2555847628 
565, 47142.8164603669 
566, 46813.2630226431 
567, 46496.2633044742 
568, 46247.5282581257 
569, 45971.5765913388 
570, 45590.7163896401 
571, 45235.5536151004 
572, 45144.7564483356 
573, 45245.2368838487 
574, 45256.9291652951 
575, 45021.2747558284 
576, 44614.6905309151 
577, 44272.1522380407 
578, 44110.4846367662 
579, 44174.4677510532 
580, 44428.6588558132 
581, 44867.5465128299 
582, 45388.9305658795 
583, 45805.2279809 
584, 46055.6652595232 
585, 46024.9871859795 
586, 45709.7307818766 
587, 45370.7128189163 
588, 44955.5928989423 
589, 44357.3830744157 
590, 43573.1142846606 
591, 43447.3307462578 
592, 43773.3647646048 
593, 44147.7378376435 
594, 44061.5690553769 
595, 43803.271110218 
596, 43484.6577471941 
597, 43153.2234576426 
598, 42771.0758482907 
599, 42302.6073144741 
600, 41800.7914262139 
601, 41376.7078603506 
602, 41042.6629416654 
603, 40883.4078143525 
604, 40899.3853528775 
605, 40947.791846539 
606, 40842.1041789999 
607, 40598.0414575804 
608, 40312.3398303865 
609, 40024.7116189043 
610, 39754.5306283965 
611, 39520.4648246038 
612, 39336.4271193721 
613, 39121.2401304588 
614, 38861.5144187283 
615, 38585.2789340219 
616, 38374.5994560939 
617, 38243.4038644052 
618, 38268.6035883147 
619, 38499.2427355276 
620, 38677.1994680557 
621, 38682.2567918393 
622, 38483.7548678149 
623, 38144.1429770348 
624, 37782.0797666158 
625, 37452.8517426985 
626, 37178.2270946712 
627, 36958.5916582717 
628, 36706.4393449963 
629, 36448.8919436258 
630, 36293.2782798715 
631, 36338.0049238321 
632, 36486.3413492126 
633, 36655.9642130328 
634, 36838.5301865214 
635, 36972.3369390371 
636, 37062.3411150264 
637, 37130.1881633103 
638, 37167.0541290554 
639, 37114.8369268972 
640, 36938.201101896 
641, 36641.1757789842 
642, 36444.6196794753 
643, 36350.8688760607 
644, 36292.6139345523 
645, 36152.3722794266 
646, 35931.3465068129 
647, 35663.1415353019 
648, 35400.3188440818 
649, 35174.7736856562 
650, 34991.0064627498 
651, 34900.618416178 
652, 34986.4265779551 
653, 34904.018029082 
654, 34492.8410498965 
655, 33737.9828620208 
656, 32783.4573861973 
657, 32153.505183985 
658, 32282.2337557431 
659, 33308.0811695178 
660, 34097.1954986751 
661, 34493.0390766303 
662, 34581.3184133728 
663, 34620.5527253873 
664, 34574.0338813354 
665, 34521.8774039687 
666, 34524.2644067976 
667, 34530.366288447 
668, 34519.9729841947 
669, 34498.2973925824 
670, 34478.2292816828 
671, 34401.4631754308 
672, 34315.5748575386 
673, 34274.2370611002 
674, 34322.6392682944 
675, 34375.1928078627 
676, 34409.6212368832 
677, 34428.7941359208 
678, 34456.436941173 
679, 34471.1723142662 
680, 34469.7608601279 
681, 34459.4644414932 
682, 34447.3550136553 
683, 34377.4824434433 
684, 34095.3334398237 
685, 33326.1853164027 
686, 31923.1312409998 
687, 29963.6119455927 
688, 27956.3991373976 
689, 27448.5739428524 
690, 28253.5668320616 
691, 29737.0148307031 
692, 31032.8630313676 
693, 32154.6005214922 
694, 32953.0627339773 
695, 33418.6182746504 
696, 33739.9339402651 
697, 34005.6250930163 
698, 34170.3255521629 
699, 34181.2676747954 
700, 34113.3968691685 
701, 34045.7908176398 
702, 34054.2482701856 
703, 34200.093153026 
704, 34488.7864566527 
705, 34811.006358386 
706, 35069.35830817 
707, 35206.0545120826 
708, 35325.9916614454 
709, 35438.7993003189 
710, 35534.6010112643 
711, 35634.5033709284 
712, 35696.6572098654 
713, 35713.3665164312 
714, 35684.7886941551 
715, 35540.1906235006 
716, 35127.5459472227 
717, 34377.8936227211 
718, 33341.2289432143 
719, 32496.2685962674 
720, 32238.1892534139 
721, 32704.1735879968 
722, 33547.0291246163 
723, 34052.537006821 
724, 34062.6345252923 
725, 33811.7072117777 
726, 33810.0684892663 
727, 33926.4671376242 
728, 34034.0870225011 
729, 34088.5184414925 
730, 34300.0639622216 
731, 34688.8374192799 
732, 35202.6714439126 
733, 35747.8558337907 
734, 36199.7797195468 
735, 36464.5779467281 
736, 36510.0226522364 
737, 36468.7220488383 
738, 36404.8585694776 
739, 36332.0209331742 
740, 36230.1977652311 
741, 36199.0329795951 
742, 36250.1635333672 
743, 36367.6867592805 
744, 36522.4232049487 
745, 36621.4738891971 
746, 36663.5186423861 
747, 36670.9256218567 
748, 36630.4806716775 
749, 36514.1550644729 
750, 36354.0527166399 
751, 36221.3683128936 
752, 36168.8578827928 
753, 36171.4347517199 
754, 36186.3291761833 
755, 36160.443303132 
756, 36005.3072192834 
757, 35270.7812361653 
758, 33196.057915364 
759, 28404.7422498751 
760, 21527.953833977 
761, 15101.633156747 
762, 11971.2842325244 
763, 12354.2861203787 
764, 14477.3132396831 
765, 17557.9807209021 
766, 21658.6714776266 
767, 25985.7357365261 
768, 29631.3965089387 
769, 32086.6477642393 
770, 33424.5467219666 
771, 34069.566671846 
772, 34320.4833303519 
773, 34390.9627617704 
774, 34381.556302297 
775, 34312.2138495286 
776, 34220.3868000984 
777, 34132.567167973 
778, 34006.6697949662 
779, 33853.5898366508 
780, 33703.1257689702 
781, 33590.0019711509 
782, 33456.7983651524 
783, 33292.7199559297 
784, 33106.6968065149 
785, 32925.1580653734 
786, 32748.9054292145 
787, 32541.9169164407 
788, 32274.2650590882 
789, 31958.3378188864 
790, 31619.6215392265 
791, 31264.6890195384 
792, 30897.4718392934 
793, 30543.6724446772 
794, 30264.8969256843 
795, 30093.579731971 
796, 30023.662109638 
797, 29968.8901072929 
798, 29853.5219866954 
799, 29646.5660026702 
800, 29372.7888704777 
801, 29081.1180786013 
802, 28810.9634233513 
803, 28575.2935584928 
804, 28338.8181498001 
805, 28130.0676388546 
806, 27935.5896276686 
807, 27722.8763407223 
808, 27449.7736011614 
809, 27129.7318700222 
810, 26785.0639680956 
811, 26428.5852515844 
812, 26002.666357826 
813, 25440.3852615857 
814, 24733.1169749705 
815, 23939.3681967742 
816, 23199.3221840098 
817, 22609.8168840564 
818, 22234.5029915539 
819, 22100.9235063173 
820, 22033.3044478193 
821, 21929.2576427495 
822, 21754.1677080619 
823, 21562.8846581271 
824, 21443.5042160442 
825, 21455.3817973471 
826, 21562.737061457 
827, 21480.9422613932 
828, 21237.6227545258 
829, 20931.9409728012 
830, 20686.1452416138 
831, 20512.6436332571 
832, 20374.1731666372 
833, 20255.5469271432 
834, 20164.6456522841 
835, 20112.936301459 
836, 20079.152212055 
837, 20027.7966442551 
838, 19916.8743973384 
839, 19763.8111942361 
840, 19581.9860099566 
841, 19383.7829833975 
842, 19178.9095558972 
843, 18966.9277172902 
844, 18758.548618757 
845, 18559.4808060869 
846, 18362.8762644259 
847, 18116.2983264715 
848, 17821.1859908305 
849, 17499.2463587873 
850, 17167.7022496323 
851, 16783.1232680431 
852, 16393.302521766 
853, 16077.2701040822 
854, 15836.8921771828 
855, 15647.6938889453 
856, 15572.5303940584 
857, 15690.6928934025 
858, 15849.2331937384 
859, 15882.8741548374 
860, 15768.3990470433 
861, 15605.2028132529 
862, 15403.8308497833 
863, 15145.9838077521 
864, 14837.280744405 
865, 14516.1777236882 
866, 14214.4903858584 
867, 13966.317640018 
868, 13812.7051790468 
869, 13799.3469224979 
870, 13843.3047162047 
871, 13836.4537296524 
872, 13728.8668076193 
873, 13578.7553152569 
874, 13417.1703466343 
875, 13255.2909963254 
876, 13095.3608170973 
877, 12937.4805109327 
878, 12784.695027147 
879, 12634.6592927555 
880, 12483.6602097106 
881, 12329.0434548058 
882, 12175.235542292 
883, 12029.1824229834 
884, 11893.8326463339 
885, 11758.925476072 
886, 11612.0027523873 
887, 11455.5245292584 
888, 11298.7830788483 
889, 11148.3971498831 
890, 10999.7220600093 
891, 10833.0041614515 
892, 10626.4117362236 
893, 10381.0291273687 
894, 10098.1057121889 
895, 9784.71551837172 
896, 9453.25408886486 
897, 9119.8166830844 
898, 8803.72718190847 
899, 8537.54897238827 
900, 8352.281905649 
901, 8238.61971925975 
902, 8181.42331752987 
903, 8152.71890592337 
904, 8119.97568620001 
905, 8071.46423470094 
906, 7985.3231240369 
907, 7846.9499780153 
908, 7657.07997630437 
909, 7454.88486420489 
910, 7284.93667530993 
911, 7161.42853665977 
912, 7071.51736950306 
913, 6996.10239407179 
914, 6922.53426617845 
915, 6847.15928668673 
916, 6775.14037053432 
917, 6722.0583048349 
918, 6676.775871071 
919, 6632.26564332656 
920, 6586.52126006341 
921, 6538.43690410557 
922, 6475.06278032323 
923, 6386.37499297467 
924, 6266.53641889777 
925, 6113.29949146565 
926, 5932.47774226752 
927, 5718.1469780335 
928, 5458.16287467546 
929, 5153.1260511128 
930, 4811.84183344763 
931, 4451.26394846351 
932, 4096.33830605949 
933, 3781.17083716916 
934, 3531.27501887545 
935, 3361.78183138946 
936, 3273.60621708145 
937, 3244.68920901586 
938, 3259.16209169863 
939, 3292.0998591006 
940, 3320.09020108449 
941, 3342.72907742057 
942, 3345.18996180128 
943, 3315.19061481422 
944, 3250.58021477168 
945, 3170.17360687321 
946, 3104.54162504036 
947, 3064.40155025108 
948, 3046.42619370569 
949, 3038.8127567696 
950, 3030.65455805519 
951, 3019.34285492441 
952, 3005.39412737812 
953, 2987.63070014892 
954, 2970.36081014157 
955, 2955.24269327468 
956, 2942.72171681647 
957, 2932.61247294575 
958, 2925.21863249143 
959, 2921.69518793279 
960, 2921.92196683888 
961, 2923.70926845897 
962, 2925.95030859658 
963, 2931.11141505481 
964, 2938.10523727778 
965, 2941.50950607144 
966, 2943.60842837986 
967, 2939.95843222049 
968, 2929.17783507055 
969, 2913.73364944586 
970, 2896.67027520669 
971, 2873.03320407023 
972, 2839.26265090232 
973, 2795.20642276431 
974, 2747.0909034099 
975, 2696.7985836838 
976, 2647.55856387386 
977, 2602.95813094784 
978, 2565.58284478943 
979, 2535.26350678806 
980, 2510.05542963651 
981, 2486.0495757421 
982, 2457.06708833867 
983, 2428.74617925719 
984, 2401.40359547831 
985, 2372.14442005327 
986, 2336.09165188166 
987, 2297.02981803345 
988, 2258.13550172753 
989, 2219.48509862778 
990, 2178.41140488579 
991, 2136.74645293536 
992, 2094.59585273556 
993, 2052.78387319589 
994, 2012.24256789972 
995, 1971.94845849145 
996, 1929.62876764641 
997, 1886.50008233334 
998, 1844.34138790792 
999, 1801.35078049946 
1000, 1757.98434162713 
1001, 10925.7853384887 
1002, 10924.0263417437 
1003, 10933.851283971 
1004, 10939.5760782831 
1005, 10957.2448766631 
1006, 10984.5735939383 
1007, 11016.0698200842 
1008, 11069.2248891337 
1009, 11127.1669052469 
1010, 11201.7130598314 
1011, 11269.134538384 
1012, 11341.0727374554 
1013, 11414.3882860253 
1014, 11480.7022009748 
1015, 11545.6860315003 
1016, 11619.7425567802 
1017, 11691.9030603287 
1018, 11763.3387689298 
1019, 11836.2136126148 
1020, 11908.1747683083 
1021, 11987.1615184436 
1022, 12067.6572759914 
1023, 12152.2570686395 
1024, 12242.460687699 
1025, 12332.4971161381 
1026, 12407.1183659311 
1027, 12479.4216912498 
1028, 12552.0391256271 
1029, 12613.9514466604 
1030, 12673.6873974119 
1031, 12733.0505513793 
1032, 12786.9772850661 
1033, 12841.3390791301 
1034, 12895.6442346429 
1035, 12943.6174157097 
1036, 12988.6538797421 
1037, 13028.5911577595 
1038, 13059.6108116061 
1039, 13090.2773956148 
1040, 13120.137504092 
1041, 13135.3630160295 
1042, 13151.7055277403 
1043, 13170.0465151404 
1044, 13180.6134312003 
1045, 13191.1545056697 
1046, 13203.4467073853 
1047, 13216.4248224223 
1048, 13225.4999059248 
1049, 13234.7627507948 
1050, 13250.0074601199 
1051, 13268.0315427498 
1052, 13288.0050895066 
1053, 13307.5931525047 
1054, 13324.3679297601 
1055, 13347.4500397801 
1056, 13363.8411235922 
1057, 13376.5444784641 
1058, 13403.0662063511 
1059, 13439.6749261597 
1060, 13489.1971627544 
1061, 13553.0746650207 
1062, 13622.7450230737 
1063, 13704.2152654535 
1064, 13791.6385052506 
1065, 13883.1608026809 
1066, 13983.4595967018 
1067, 14095.0723683325 
1068, 14214.156147947 
1069, 14348.9626950764 
1070, 14501.28747152 
1071, 14663.8384365583 
1072, 14830.0115628877 
1073, 14991.9685196154 
1074, 15157.1444375496 
1075, 15311.7874192436 
1076, 15461.5073943291 
1077, 15612.2207413476 
1078, 15750.450953147 
1079, 15878.2993618773 
1080, 15988.7878086285 
1081, 16084.7739224209 
1082, 16166.5847033205 
1083, 16243.6128120197 
1084, 16332.5454699033 
1085, 16417.8440062002 
1086, 16495.3142017744 
1087, 16581.1457748026 
1088, 16643.9243438747 
1089, 16696.0688147354 
1090, 16728.6532699981 
1091, 16745.2321819508 
1092, 16746.9981466679 
1093, 16729.284418233 
1094, 16707.6416147121 
1095, 16685.2841572763 
1096, 16654.5066531493 
1097, 16628.3337426801 
1098, 16601.9267380706 
1099, 16576.3465086799 
1100, 16553.8469377638 
1101, 16528.1123288017 
1102, 16507.3580902021 
1103, 16471.3821741119 
1104, 16442.9773330559 
1105, 16381.4591321011 
1106, 16300.4856123726 
1107, 16188.6155906643 
1108, 16008.0633700602 
1109, 15773.9807424581 
1110, 15447.8182346929 
1111, 15037.7859422304 
1112, 14557.4077344092 
1113, 13966.509202195 
1114, 13376.7250109495 
1115, 12681.5185978312 
1116, 12064.8764043632 
1117, 11402.1000518316 
1118, 10839.7124661271 
1119, 10328.332377576 
1120, 9858.31704363176 
1121, 9463.21854576621 
1122, 9142.91694730187 
1123, 8920.86517408445 
1124, 8774.82627328065 
1125, 8716.19212062952 
1126, 8788.10012833019 
1127, 8844.86891293134 
1128, 8971.66246261397 
1129, 9101.96683920968 
1130, 9267.49518075738 
1131, 9430.3502749061 
1132, 9598.49956383762 
1133, 9803.86303550248 
1134, 10017.4808542209 
1135, 10255.0770997359 
1136, 10588.8819925739 
1137, 10935.8094023367 
1138, 11272.2684988064 
1139, 11589.4306243555 
1140, 11804.4305110586 
1141, 11963.1474974958 
1142, 12045.2108753831 
1143, 12009.1318675102 
1144, 12006.6335961043 
1145, 11868.6147395723 
1146, 11889.8666484459 
1147, 11921.4085681253 
1148, 12072.6283924635 
1149, 12335.8839810361 
1150, 12661.738955754 
1151, 13082.8794837039 
1152, 13551.2473400319 
1153, 14034.5094401813 
1154, 14589.7248718549 
1155, 15115.1490089563 
1156, 15664.3503206532 
1157, 16188.1004430776 
1158, 16722.4957627441 
1159, 17221.1144636501 
1160, 17710.8171169038 
1161, 18161.5132177053 
1162, 18592.59881389 
1163, 18986.571638596 
1164, 19345.3974982576 
1165, 19673.2868715657 
1166, 19972.5304515088 
1167, 20226.1436390345 
1168, 20451.316970464 
1169, 20642.3884396158 
1170, 20801.9680275861 
1171, 20924.4147577242 
1172, 21024.2557040435 
1173, 21084.2921392454 
1174, 21136.2010539557 
1175, 21161.3846294583 
1176, 21178.129672573 
1177, 21170.5176624794 
