Wavelength,0212202100117.asd
350, 2537.34482135332 
351, 2668.64575135438 
352, 2790.75523665438 
353, 2892.64915452128 
354, 2989.79505007133 
355, 3093.4811548765 
356, 3207.2099544671 
357, 3315.66522132293 
358, 3427.94883891745 
359, 3548.86443976825 
360, 3682.87333406073 
361, 3842.63153783938 
362, 4028.75489537289 
363, 4233.31141020792 
364, 4441.63478699535 
365, 4652.09501905089 
366, 4853.10527455174 
367, 5029.79216234245 
368, 5165.10109376554 
369, 5245.09917330607 
370, 5272.7703787165 
371, 5262.77374055665 
372, 5238.33271276784 
373, 5229.25801387474 
374, 5238.91897558219 
375, 5251.8025861552 
376, 5264.60305432605 
377, 5272.88427137218 
378, 5264.19751823098 
379, 5216.13042709635 
380, 5152.73551630128 
381, 5081.49312342541 
382, 5002.79838375744 
383, 4907.69623129385 
384, 4808.21279204698 
385, 4737.24308642945 
386, 4736.08642551454 
387, 4833.33435090026 
388, 4974.5002275362 
389, 5098.45361846999 
390, 5152.32706416287 
391, 5211.24938022799 
392, 5269.78325983277 
393, 5316.6624402537 
394, 5355.00951705879 
395, 5463.1611546495 
396, 5678.76298207019 
397, 6017.72661161419 
398, 6494.22758188546 
399, 7036.07999877594 
400, 7592.16313023777 
401, 8135.68476350788 
402, 8654.1001058692 
403, 9080.80481631465 
404, 9386.96269614208 
405, 9623.43851987027 
406, 9811.92035673667 
407, 9980.11583949951 
408, 10161.8414308429 
409, 10411.9105020366 
410, 10713.579330053 
411, 11047.321853637 
412, 11393.222088902 
413, 11736.6121323298 
414, 12076.6898704454 
415, 12404.9288191939 
416, 12694.3269584876 
417, 12966.1889159678 
418, 13243.9205993821 
419, 13536.0791498804 
420, 13790.0358191753 
421, 14044.0338210043 
422, 14321.2666419317 
423, 14624.816589067 
424, 14901.8577835294 
425, 15119.7996226755 
426, 15250.1404960077 
427, 15262.0305279001 
428, 15202.9468993108 
429, 15210.079726595 
430, 15396.0182012669 
431, 15671.1099781796 
432, 16032.0713789987 
433, 16563.1903264907 
434, 17376.0078294094 
435, 18238.4467616685 
436, 18898.3140620408 
437, 19304.2574112824 
438, 19733.5650382232 
439, 20174.6644124422 
440, 20590.2673946219 
441, 20965.6167193624 
442, 21451.4466846381 
443, 21965.6688293318 
444, 22438.4958347817 
445, 22821.7382579493 
446, 23132.7944689686 
447, 23411.67121085 
448, 23704.1636161883 
449, 24067.3460115076 
450, 24377.0775398307 
451, 24545.643572275 
452, 24537.7423998986 
453, 24473.0385085854 
454, 24333.7791602608 
455, 24157.7527907894 
456, 24033.1731692022 
457, 24001.7400646348 
458, 24008.0945363404 
459, 23992.2756178004 
460, 23926.1603350708 
461, 23830.6640309173 
462, 23727.7717957617 
463, 23626.630477632 
464, 23470.1373592408 
465, 23228.343138774 
466, 22928.9987274492 
467, 22654.8807341545 
468, 22422.8286187261 
469, 22248.6468173245 
470, 22140.4623833708 
471, 22103.4730601689 
472, 22077.5804783055 
473, 22068.1599573553 
474, 22099.2883703149 
475, 22091.3522009153 
476, 22066.9765826858 
477, 22051.8761553913 
478, 22063.1153304236 
479, 22135.1049467539 
480, 22235.643959559 
481, 22307.4839882598 
482, 22291.1319508227 
483, 22126.9715477073 
484, 21779.7726888256 
485, 21260.2845799526 
486, 20754.4526750654 
487, 20393.4775076359 
488, 20283.4732145303 
489, 20517.0127774701 
490, 20896.775594934 
491, 21211.7715370675 
492, 21322.8932489409 
493, 21364.1383408191 
494, 21423.818384271 
495, 21543.6242512369 
496, 21711.2966040062 
497, 21765.517361712 
498, 21707.3306367227 
499, 21572.4284559746 
500, 21390.8353272541 
501, 21251.5957678738 
502, 21194.9518445683 
503, 21240.6826080234 
504, 21438.4989107792 
505, 21714.9436517109 
506, 21996.2765763779 
507, 22221.1912052289 
508, 22393.7151453913 
509, 22528.851455568 
510, 22653.7295020738 
511, 22824.2805522005 
512, 22943.1913826694 
513, 22968.0236976067 
514, 22890.5656417105 
515, 22705.8056842999 
516, 22454.3211471148 
517, 22207.9074659523 
518, 22066.5244358292 
519, 22251.5528404446 
520, 22786.7983725935 
521, 23547.5069095114 
522, 24182.9024983444 
523, 24659.3990378892 
524, 24995.9070762035 
525, 25246.2212825007 
526, 25358.4495690151 
527, 25404.4864812105 
528, 25536.3444879542 
529, 26047.9935231836 
530, 26719.1488984004 
531, 27288.9432276975 
532, 27541.3972156471 
533, 27626.4597296515 
534, 27752.8987334944 
535, 28032.9714748631 
536, 28457.9951290988 
537, 28766.833072174 
538, 28913.3258184157 
539, 28936.6287329968 
540, 28930.5260326507 
541, 28958.4618843968 
542, 29108.6933178422 
543, 29450.5621239445 
544, 29842.2439121006 
545, 30186.0317115811 
546, 30428.3364987663 
547, 30569.9128038696 
548, 30666.0121840194 
549, 30775.8728738072 
550, 30936.4081400432 
551, 31104.4695255014 
552, 31234.5758219731 
553, 31330.1741668887 
554, 31432.4694448429 
555, 31510.8170559432 
556, 31487.1603854691 
557, 31318.5301246939 
558, 31034.5553358272 
559, 30789.5789194646 
560, 30677.9418148473 
561, 30735.5482405704 
562, 30877.9280069198 
563, 30962.236717339 
564, 30919.2217395354 
565, 30773.2246934386 
566, 30559.6631639661 
567, 30340.5892580695 
568, 30156.1674117806 
569, 29970.6833399697 
570, 29729.3018303202 
571, 29499.5770372336 
572, 29414.8168260456 
573, 29444.3332153855 
574, 29442.2218406095 
575, 29314.2982225227 
576, 29071.2820984872 
577, 28846.0856380042 
578, 28728.3789013109 
579, 28767.1082271327 
580, 28921.2619704574 
581, 29190.0037617818 
582, 29517.5523206298 
583, 29797.6254230057 
584, 29974.8448474114 
585, 29976.8356140594 
586, 29795.4906652783 
587, 29564.1790646068 
588, 29274.6056809505 
589, 28881.5201834997 
590, 28387.4683731242 
591, 28210.9245261286 
592, 28348.3609944611 
593, 28603.8556431674 
594, 28599.979015432 
595, 28462.3796197432 
596, 28264.3123886059 
597, 28056.7104501592 
598, 27829.9630808061 
599, 27551.9415743278 
600, 27245.5519708405 
601, 26972.6489375343 
602, 26762.3563839318 
603, 26650.2731488542 
604, 26634.6529029519 
605, 26661.1959233895 
606, 26604.2141596419 
607, 26457.2957868281 
608, 26268.0445774318 
609, 26082.4889761254 
610, 25903.2924027745 
611, 25739.8977536656 
612, 25607.1382407359 
613, 25463.2718309225 
614, 25294.1894539476 
615, 25111.4105797519 
616, 24967.1276011522 
617, 24876.7768325742 
618, 24874.88467779 
619, 24979.9609652537 
620, 25093.4224468046 
621, 25106.2799034101 
622, 24982.1044637344 
623, 24774.3910434893 
624, 24536.2334806833 
625, 24309.890893327 
626, 24117.7082271095 
627, 23942.6614803268 
628, 23771.6062731337 
629, 23610.2970901227 
630, 23486.3729772662 
631, 23498.4649152993 
632, 23586.2784347357 
633, 23693.8093588897 
634, 23811.3107835158 
635, 23903.6954889404 
636, 23969.7290281457 
637, 24016.6696548195 
638, 24033.8638187025 
639, 24002.2716851919 
640, 23904.0384087378 
641, 23732.4846156378 
642, 23597.4968850999 
643, 23518.5653511568 
644, 23471.0396092201 
645, 23381.1923660461 
646, 23236.4153071836 
647, 23051.9758409385 
648, 22862.9640653436 
649, 22712.3799032415 
650, 22597.8335496793 
651, 22540.8397974305 
652, 22580.6648713714 
653, 22539.4767298573 
654, 22299.6133238917 
655, 21840.8699080128 
656, 21297.6671244072 
657, 20906.4209145446 
658, 20915.6432496752 
659, 21452.0543716033 
660, 22007.405633818 
661, 22331.5005463377 
662, 22403.8826480427 
663, 22444.7428525334 
664, 22432.0829065331 
665, 22403.1437189807 
666, 22392.0642356654 
667, 22404.9142321752 
668, 22405.3600438546 
669, 22391.8010158879 
670, 22378.7565256805 
671, 22339.3763832842 
672, 22291.7862904671 
673, 22262.9741878883 
674, 22284.5684844505 
675, 22319.0180989312 
676, 22346.3312239939 
677, 22359.5496704813 
678, 22377.6273998435 
679, 22388.6374295038 
680, 22390.931572341 
681, 22387.9775311136 
682, 22378.0771695405 
683, 22330.5826499577 
684, 22148.3654255978 
685, 21649.8957223401 
686, 20761.5463653426 
687, 19560.9004306606 
688, 18340.4147797189 
689, 17832.3465464815 
690, 18204.7332072332 
691, 19124.1899531225 
692, 19959.0316875903 
693, 20688.1997375385 
694, 21216.3788901928 
695, 21537.8814752776 
696, 21766.4844870264 
697, 21965.8082470561 
698, 22104.4106480207 
699, 22138.9562128085 
700, 22091.5644754092 
701, 22045.0599960959 
702, 22054.7282961104 
703, 22150.6962599377 
704, 22343.8332303452 
705, 22568.4361224443 
706, 22760.9442761567 
707, 22876.2775956997 
708, 22972.6200591679 
709, 23060.7121466414 
710, 23139.0495003987 
711, 23211.5448898116 
712, 23266.4211385134 
713, 23291.7232773478 
714, 23268.7077217745 
715, 23152.4080505357 
716, 22843.7684090707 
717, 22298.7559594801 
718, 21551.741952717 
719, 20926.90035288 
720, 20699.1493684718 
721, 20976.6237831512 
722, 21554.0060150446 
723, 21959.9320697484 
724, 22029.8765654475 
725, 21847.2659044877 
726, 21805.4105233224 
727, 21875.1088130604 
728, 21982.4176110626 
729, 22055.3310923738 
730, 22214.9272584906 
731, 22495.839175265 
732, 22882.3460356304 
733, 23303.8053221294 
734, 23673.3825084012 
735, 23917.1355782604 
736, 23999.0955139805 
737, 23991.2118537438 
738, 23968.9095617771 
739, 23951.3931571538 
740, 23912.7829368398 
741, 23908.7259698493 
742, 23950.8840938869 
743, 24034.3773419469 
744, 24143.2486265789 
745, 24221.7645231265 
746, 24261.0779666956 
747, 24268.6558949728 
748, 24246.7612000674 
749, 24178.0100262054 
750, 24079.3440136974 
751, 23990.9458117587 
752, 23948.0725038677 
753, 23941.9114062508 
754, 23947.9495700827 
755, 23928.7208317017 
756, 23817.055355813 
757, 23327.6664243407 
758, 21998.65148263 
759, 19036.8469476985 
760, 14667.1926396969 
761, 10370.2085485419 
762, 7943.80132140437 
763, 7920.86957952807 
764, 9188.93231955327 
765, 11174.2353420874 
766, 13798.163696086 
767, 16665.0383364418 
768, 19160.5857795073 
769, 20902.7691979975 
770, 21880.96286248 
771, 22364.8349271992 
772, 22555.7358763956 
773, 22606.9205609729 
774, 22598.7892938974 
775, 22546.8488867246 
776, 22477.027887704 
777, 22407.6441216628 
778, 22315.7587052403 
779, 22206.0850945152 
780, 22095.2840568509 
781, 22004.4140409354 
782, 21906.3227045197 
783, 21789.5426194833 
784, 21655.7570776074 
785, 21522.2038612321 
786, 21388.7675938947 
787, 21232.1994034202 
788, 21034.0219792375 
789, 20804.1579512426 
790, 20561.6915534459 
791, 20316.2402459182 
792, 20073.9532559386 
793, 19843.6195919705 
794, 19655.4864657147 
795, 19528.3331524599 
796, 19463.1608858831 
797, 19413.8937583326 
798, 19335.2834571852 
799, 19203.5045927722 
800, 19022.9205837998 
801, 18821.3878054579 
802, 18633.2119492765 
803, 18475.0390693752 
804, 18324.1820080512 
805, 18193.5965516932 
806, 18072.2970389982 
807, 17938.0865135321 
808, 17762.9799758668 
809, 17547.8035212224 
810, 17305.9072413871 
811, 17048.8428405613 
812, 16741.653087711 
813, 16336.2170198224 
814, 15826.7826434932 
815, 15256.9973183797 
816, 14730.9870667424 
817, 14320.2917923533 
818, 14070.0913366384 
819, 13996.6900972538 
820, 13984.6062420107 
821, 13942.6493542086 
822, 13832.4261883721 
823, 13705.0333694477 
824, 13619.8601148302 
825, 13632.3297689742 
826, 13730.4249810852 
827, 13708.9156812333 
828, 13558.9174696015 
829, 13351.3571870931 
830, 13189.5009677164 
831, 13088.078369913 
832, 13015.5250059142 
833, 12956.537857494 
834, 12914.0672415381 
835, 12898.2797667349 
836, 12891.7731552444 
837, 12871.0814030731 
838, 12812.5353319753 
839, 12720.0962778083 
840, 12606.6674661711 
841, 12483.0321007657 
842, 12352.0855921888 
843, 12215.7421351164 
844, 12080.9645644555 
845, 11951.8140811543 
846, 11826.2428552226 
847, 11670.7951169346 
848, 11480.2013612116 
849, 11264.8374550806 
850, 11048.4738689637 
851, 10798.6316074929 
852, 10541.2133657871 
853, 10324.9857062857 
854, 10161.7701642051 
855, 10031.3755531068 
856, 9970.13730815386 
857, 10028.8653976906 
858, 10127.2893536589 
859, 10152.1861247034 
860, 10080.8299217533 
861, 9972.2047927878 
862, 9840.71403120504 
863, 9671.77144672805 
864, 9467.57111630234 
865, 9254.40934131882 
866, 9053.10711726057 
867, 8882.07993381558 
868, 8768.58594695362 
869, 8749.5173574278 
870, 8769.24872259583 
871, 8760.49873771286 
872, 8690.07192784077 
873, 8587.35127570752 
874, 8478.07637981112 
875, 8368.24068394686 
876, 8257.91471502185 
877, 8149.21853799554 
878, 8044.16744917554 
879, 7941.75758219072 
880, 7839.74872802128 
881, 7735.58167839317 
882, 7631.38256522087 
883, 7531.35474066382 
884, 7438.06807788029 
885, 7347.91448511733 
886, 7249.15577568411 
887, 7143.64362445487 
888, 7038.83626607626 
889, 6938.02168789446 
890, 6839.01025483986 
891, 6727.7186968134 
892, 6588.17475501193 
893, 6421.77562866144 
894, 6227.74490293272 
895, 6011.34821602806 
896, 5782.52325585075 
897, 5552.26658036398 
898, 5335.26591422792 
899, 5154.78043449391 
900, 5032.55562514225 
901, 4962.90403281391 
902, 4932.9240260029 
903, 4923.05077296485 
904, 4911.27957678239 
905, 4884.42962775286 
906, 4831.57013713338 
907, 4743.19964294678 
908, 4617.74925048753 
909, 4483.24150713796 
910, 4369.28104471664 
911, 4286.96018091681 
912, 4229.83645990098 
913, 4182.06662668694 
914, 4137.95688120517 
915, 4093.97511536808 
916, 4050.55979857438 
917, 4023.2151596524 
918, 4002.89216914921 
919, 3984.1211775893 
920, 3965.53540825507 
921, 3944.71349176883 
922, 3913.42873772883 
923, 3862.8992716293 
924, 3786.56412103187 
925, 3687.35749422294 
926, 3570.66872805697 
927, 3431.20216044374 
928, 3258.90721776545 
929, 3059.55239203891 
930, 2833.16882686322 
931, 2591.90990698033 
932, 2356.93949506156 
933, 2148.85108235983 
934, 1983.69634907887 
935, 1872.78769910139 
936, 1818.66851147063 
937, 1806.27417360448 
938, 1820.09157697257 
939, 1844.40896185233 
940, 1866.71168270577 
941, 1884.29261164733 
942, 1891.79602850931 
943, 1877.62017884983 
944, 1835.96301747316 
945, 1785.17077314777 
946, 1744.3910882723 
947, 1719.73881316131 
948, 1709.02326636978 
949, 1707.37339788945 
950, 1704.48517091049 
951, 1700.7735988963 
952, 1696.88768351554 
953, 1683.73883142519 
954, 1676.05662030075 
955, 1670.44467942146 
956, 1663.03072378782 
957, 1659.30296322226 
958, 1657.52754349996 
959, 1656.83290423333 
960, 1657.28051955213 
961, 1660.03043118048 
962, 1664.40746953273 
963, 1669.864026722 
964, 1676.32335857616 
965, 1683.83202503532 
966, 1688.35635967767 
967, 1689.10082090188 
968, 1685.30635240304 
969, 1676.54125485268 
970, 1666.99010627743 
971, 1653.47429877523 
972, 1633.03906787072 
973, 1604.81774418546 
974, 1573.13576790674 
975, 1538.94977981982 
976, 1505.29980992927 
977, 1475.69727499445 
978, 1451.7194119008 
979, 1432.67938835988 
980, 1417.24630784509 
981, 1402.85347682525 
982, 1385.11757989091 
983, 1366.90041542781 
984, 1348.83692006734 
985, 1329.8531985743 
986, 1307.46155768003 
987, 1283.91153482902 
988, 1259.4752152544 
989, 1233.83833799063 
990, 1206.76351619702 
991, 1180.3752083949 
992, 1154.58899774297 
993, 1129.14213232089 
994, 1103.49973210432 
995, 1075.38520114531 
996, 1049.67454951029 
997, 1024.60783017245 
998, 997.01785697453 
999, 969.611495709159 
1000, 943.688982214702 
1001, 5961.52112920128 
1002, 5942.77984702983 
1003, 5924.26218077326 
1004, 5904.55327673246 
1005, 5895.41382965464 
1006, 5894.35640355162 
1007, 5899.337690116 
1008, 5911.30678873202 
1009, 5925.95840002092 
1010, 5949.75285993147 
1011, 5968.54435039239 
1012, 5987.14168061232 
1013, 6007.57926090561 
1014, 6032.91364572186 
1015, 6055.55863846308 
1016, 6077.29194387219 
1017, 6100.85991074232 
1018, 6123.97638010177 
1019, 6140.9468163388 
1020, 6165.04881972246 
1021, 6201.73234037269 
1022, 6234.50027443933 
1023, 6265.48572581024 
1024, 6303.69079466493 
1025, 6342.89776691556 
1026, 6371.80097323503 
1027, 6405.67891088656 
1028, 6441.88625117121 
1029, 6477.21778700698 
1030, 6512.74026287383 
1031, 6549.07715315543 
1032, 6583.99116876133 
1033, 6612.76307488747 
1034, 6640.43044898598 
1035, 6667.07662348566 
1036, 6688.98010895867 
1037, 6712.57354868507 
1038, 6740.55156395406 
1039, 6762.02814832452 
1040, 6784.82098308768 
1041, 6806.81569263184 
1042, 6822.67365958422 
1043, 6842.05387412011 
1044, 6862.3453538167 
1045, 6874.41551941093 
1046, 6888.51424786992 
1047, 6908.16411944794 
1048, 6932.18319371604 
1049, 6954.28528653496 
1050, 6979.01692840995 
1051, 7006.67472973489 
1052, 7030.96209473924 
1053, 7058.97985921581 
1054, 7090.72434725856 
1055, 7118.34819449634 
1056, 7145.16771294381 
1057, 7174.15138158972 
1058, 7204.15992646606 
1059, 7242.84684607838 
1060, 7289.90080553668 
1061, 7347.50875834011 
1062, 7403.87837717537 
1063, 7465.68834337126 
1064, 7531.10345363692 
1065, 7598.77345299919 
1066, 7671.7075028426 
1067, 7749.14933145117 
1068, 7835.67703880368 
1069, 7921.77724094851 
1070, 8014.09439253044 
1071, 8124.4208943273 
1072, 8228.59165500675 
1073, 8333.65081072547 
1074, 8450.85403519346 
1075, 8552.45250430822 
1076, 8645.05219138179 
1077, 8739.10243519341 
1078, 8822.32367701977 
1079, 8896.83315307005 
1080, 8965.96832322536 
1081, 9023.48565823619 
1082, 9076.67804072545 
1083, 9127.77083141325 
1084, 9173.85106656269 
1085, 9219.75835508378 
1086, 9261.6412649654 
1087, 9302.3290529827 
1088, 9334.2171898406 
1089, 9367.36520215314 
1090, 9384.9023260178 
1091, 9391.47257231901 
1092, 9391.81142944379 
1093, 9377.16716047274 
1094, 9348.4391464928 
1095, 9324.07954549296 
1096, 9294.32657861927 
1097, 9260.58207739871 
1098, 9228.67878282036 
1099, 9194.04140611195 
1100, 9149.98922689706 
1101, 9114.75578636082 
1102, 9090.22134720834 
1103, 9052.69121824526 
1104, 9020.90961993987 
1105, 8971.23853975807 
1106, 8904.98497666674 
1107, 8815.6080686722 
1108, 8691.09798924564 
1109, 8538.84876604448 
1110, 8333.68322624716 
1111, 8078.78733336243 
1112, 7782.25605063699 
1113, 7419.39429778762 
1114, 7060.29708253395 
1115, 6641.02398159171 
1116, 6266.99055378337 
1117, 5863.75959793195 
1118, 5525.30473353464 
1119, 5221.22628672073 
1120, 4937.52722281656 
1121, 4703.3491753312 
1122, 4516.42157528537 
1123, 4374.89206004033 
1124, 4280.72245678191 
1125, 4230.95970302566 
1126, 4247.18775112893 
1127, 4265.13793870413 
1128, 4323.98264002836 
1129, 4387.14799575763 
1130, 4478.80447225297 
1131, 4565.93467217456 
1132, 4655.2895171802 
1133, 4766.44855785664 
1134, 4885.88816429523 
1135, 5013.81368857797 
1136, 5196.0002255407 
1137, 5382.16313191942 
1138, 5564.27672974815 
1139, 5736.2821502398 
1140, 5844.55789958813 
1141, 5919.87733556751 
1142, 5948.80553170438 
1143, 5903.4048577967 
1144, 5879.53415392028 
1145, 5778.31050268061 
1146, 5768.1738565821 
1147, 5767.11900762907 
1148, 5827.77685595844 
1149, 5952.00299654196 
1150, 6106.64552722199 
1151, 6305.24194368299 
1152, 6529.46121129323 
1153, 6769.00314079033 
1154, 7051.35675012943 
1155, 7314.39047965667 
1156, 7596.26252036075 
1157, 7856.4969858646 
1158, 8118.25783148379 
1159, 8357.84180137012 
1160, 8592.73397545262 
1161, 8800.42235593484 
1162, 8989.7695851211 
1163, 9158.83689361815 
1164, 9308.78056679369 
1165, 9431.6073191364 
1166, 9539.75331104647 
1167, 9631.06434378096 
1168, 9696.73980835999 
1169, 9738.89273487598 
1170, 9764.75603320791 
1171, 9766.61389333385 
1172, 9755.81220647985 
1173, 9724.65852808128 
1174, 9686.20909092866 
1175, 9624.9800225072 
1176, 9567.96086892749 
1177, 9501.70480157529 
