Wavelength,0212202100010.asd
350, 162.674754480339 
351, 170.167077130275 
352, 178.353429404422 
353, 186.80916280228 
354, 193.911217866519 
355, 199.694146013296 
356, 204.970817768622 
357, 211.052212112751 
358, 218.630890252616 
359, 226.763801925381 
360, 234.534138207185 
361, 246.418609635211 
362, 259.36313090102 
363, 271.548323017776 
364, 283.027389022247 
365, 294.515471349586 
366, 306.358139692805 
367, 317.802026279452 
368, 326.405716153255 
369, 329.876867967311 
370, 330.336217599346 
371, 330.38587354754 
372, 327.182014791905 
373, 327.200405852826 
374, 329.716252203543 
375, 329.649768923178 
376, 330.296171488815 
377, 330.679794917338 
378, 329.684776886846 
379, 326.6739137318 
380, 323.062254068268 
381, 319.066169867712 
382, 314.46462134171 
383, 308.529747475855 
384, 303.227757484712 
385, 299.778697184533 
386, 299.337145220053 
387, 305.424908110805 
388, 313.059906113318 
389, 318.983263787142 
390, 322.710201943068 
391, 326.533635280524 
392, 330.420001056724 
393, 334.017660851625 
394, 336.749983351332 
395, 344.454248334709 
396, 359.088502199458 
397, 380.660138452568 
398, 408.586416015858 
399, 442.738362442412 
400, 479.211410070275 
401, 511.378232874607 
402, 541.431683402444 
403, 566.042988570721 
404, 583.905007500463 
405, 598.745741312096 
406, 610.18996047256 
407, 620.336306712822 
408, 632.114716472611 
409, 648.648296109277 
410, 666.391480902884 
411, 685.286639641037 
412, 707.667063847776 
413, 729.722747750865 
414, 750.358532206195 
415, 769.094338786465 
416, 785.584786069503 
417, 803.046645500399 
418, 820.630957535266 
419, 836.795881897101 
420, 852.880237001118 
421, 868.603666990007 
422, 885.564281951005 
423, 905.749603292143 
424, 921.389902092298 
425, 933.055075565583 
426, 940.447873626275 
427, 939.524522287072 
428, 935.630517935507 
429, 937.355046550156 
430, 950.800806391901 
431, 968.935132569004 
432, 992.433707779139 
433, 1026.94672081057 
434, 1078.86655350277 
435, 1127.0359800712 
436, 1163.66558984442 
437, 1189.58451039981 
438, 1215.92800396329 
439, 1242.9370172144 
440, 1268.31554413741 
441, 1291.05076345905 
442, 1320.52746839509 
443, 1351.00278730176 
444, 1378.74453219506 
445, 1402.10934783036 
446, 1420.06018964655 
447, 1436.74696342357 
448, 1455.4561693465 
449, 1476.88129036884 
450, 1493.71809578318 
451, 1502.31751975265 
452, 1501.90337755509 
453, 1496.88233456128 
454, 1487.3217695218 
455, 1476.40178976805 
456, 1469.82815258445 
457, 1468.12172313414 
458, 1468.69702937154 
459, 1468.34614155745 
460, 1463.98270913553 
461, 1456.77064164116 
462, 1449.69048101976 
463, 1444.81863185511 
464, 1435.54083605608 
465, 1419.73396064514 
466, 1400.174552154 
467, 1384.04949111144 
468, 1369.7865258656 
469, 1359.10584988528 
470, 1353.48035168465 
471, 1353.2954701745 
472, 1351.83775200288 
473, 1350.36977022047 
474, 1352.72437056608 
475, 1351.50754986917 
476, 1350.00295430995 
477, 1350.33006380316 
478, 1351.96597392255 
479, 1355.70196518752 
480, 1359.93470326396 
481, 1362.2797204313 
482, 1361.03684540261 
483, 1349.52358263345 
484, 1326.34705907089 
485, 1294.94448692009 
486, 1264.87938998591 
487, 1244.8753157562 
488, 1241.43260958541 
489, 1258.90351145941 
490, 1281.10319509047 
491, 1297.19878023325 
492, 1302.30624519315 
493, 1305.4012196834 
494, 1310.14741886074 
495, 1317.90803438022 
496, 1327.40708462608 
497, 1329.44963955514 
498, 1325.2517582706 
499, 1317.18431422712 
500, 1304.95251157684 
501, 1296.70815481064 
502, 1294.31536604677 
503, 1297.5168801202 
504, 1310.97046377833 
505, 1328.37191866783 
506, 1344.37775166335 
507, 1355.76768075725 
508, 1365.67945861395 
509, 1373.86603989625 
510, 1380.54365538475 
511, 1389.66521396513 
512, 1395.98467116277 
513, 1396.43498171778 
514, 1389.85508260805 
515, 1379.34292104605 
516, 1365.18549304574 
517, 1350.58735822485 
518, 1342.84642449619 
519, 1355.77459524622 
520, 1389.48244942087 
521, 1435.09831666009 
522, 1472.1173422108 
523, 1500.34866052004 
524, 1520.18843329667 
525, 1532.51461437733 
526, 1538.34561752642 
527, 1541.37380343863 
528, 1550.16447208556 
529, 1583.9892455993 
530, 1625.54799962067 
531, 1657.20062896987 
532, 1666.63585778934 
533, 1671.93893420578 
534, 1681.67620535409 
535, 1699.59925998314 
536, 1724.36787799907 
537, 1742.11975251205 
538, 1749.87644746544 
539, 1749.65033247126 
540, 1747.37871673708 
541, 1749.80541489404 
542, 1761.35967984685 
543, 1783.11287119434 
544, 1805.34134719274 
545, 1824.33129039605 
546, 1838.21627568633 
547, 1846.45704753268 
548, 1853.09327555217 
549, 1859.5086489323 
550, 1866.45307664935 
551, 1876.44554018417 
552, 1884.57615666914 
553, 1889.97470303531 
554, 1895.21693302204 
555, 1899.46483366768 
556, 1896.67764972404 
557, 1884.22513099879 
558, 1867.85285952229 
559, 1853.74534721696 
560, 1847.1889292544 
561, 1851.1818371247 
562, 1862.16571372344 
563, 1868.20289539922 
564, 1864.07155871408 
565, 1853.34888583686 
566, 1839.90005122205 
567, 1827.84839120124 
568, 1818.79800069593 
569, 1807.57615502455 
570, 1792.75004714198 
571, 1779.10541089776 
572, 1774.57503631703 
573, 1776.93397475215 
574, 1776.79759709932 
575, 1768.33653548261 
576, 1752.7240612442 
577, 1739.23756821922 
578, 1732.7396989701 
579, 1735.04828603309 
580, 1742.82696570245 
581, 1760.19021073343 
582, 1781.7132965257 
583, 1793.8342096806 
584, 1804.80598799434 
585, 1806.0627439739 
586, 1793.28030311934 
587, 1779.15070719884 
588, 1761.79771715904 
589, 1737.68366209811 
590, 1707.19754683472 
591, 1701.89852401319 
592, 1714.5895228819 
593, 1729.65415027522 
594, 1726.17465990259 
595, 1715.38229807685 
596, 1702.63410535327 
597, 1690.187723324 
598, 1673.75751964039 
599, 1655.51211676337 
600, 1636.95702131528 
601, 1619.41156245653 
602, 1606.25075437204 
603, 1600.38236528995 
604, 1601.34115257893 
605, 1603.81189736503 
606, 1599.35967925222 
607, 1588.94132404613 
608, 1577.10544399369 
609, 1565.16138736831 
610, 1555.51709565226 
611, 1547.65932392918 
612, 1538.45635506676 
613, 1529.62536702111 
614, 1519.42501090711 
615, 1507.8459504327 
616, 1500.42025909917 
617, 1495.35726121472 
618, 1496.30880486856 
619, 1506.49497625548 
620, 1511.56897400575 
621, 1510.93279497061 
622, 1504.40170369959 
623, 1490.70607958981 
624, 1477.13620673196 
625, 1464.85520266274 
626, 1453.32285662523 
627, 1442.41689335105 
628, 1433.01758413354 
629, 1424.87079248877 
630, 1417.82305886784 
631, 1419.69134678381 
632, 1425.36212875591 
633, 1431.17426363317 
634, 1438.92482479885 
635, 1444.22693388058 
636, 1447.43394435268 
637, 1450.0682792934 
638, 1451.81801526201 
639, 1448.72408462628 
640, 1440.24663832361 
641, 1429.18090920607 
642, 1420.64331688106 
643, 1416.13638789893 
644, 1414.44355591116 
645, 1410.99083545709 
646, 1402.17326684174 
647, 1390.14736158745 
648, 1379.33670998839 
649, 1370.69235408437 
650, 1363.86874626494 
651, 1360.87890487515 
652, 1365.41667758826 
653, 1361.48929159456 
654, 1344.17564656817 
655, 1314.84022100239 
656, 1280.96814054294 
657, 1256.5695328675 
658, 1259.5915044033 
659, 1299.50755340867 
660, 1330.49688551506 
661, 1345.30682714555 
662, 1347.66036707965 
663, 1349.76814420091 
664, 1348.15002949794 
665, 1345.42028429718 
666, 1344.41805536488 
667, 1345.55425201568 
668, 1345.47434379162 
669, 1344.78631221291 
670, 1345.38988964695 
671, 1340.3049049166 
672, 1336.18148796765 
673, 1336.53559720448 
674, 1338.70130380831 
675, 1338.78219446034 
676, 1338.84659076975 
677, 1340.99627914766 
678, 1341.51113847095 
679, 1341.91156104748 
680, 1342.35749492384 
681, 1342.12133137828 
682, 1341.02134796021 
683, 1337.46012653035 
684, 1326.20626740626 
685, 1297.4399761059 
686, 1243.63914557089 
687, 1168.10759044137 
688, 1090.909319264 
689, 1070.15154789268 
690, 1100.68787289111 
691, 1158.23768654209 
692, 1208.40272812898 
693, 1252.21169036096 
694, 1282.71165693152 
695, 1299.53680667054 
696, 1312.01375678673 
697, 1322.53530111281 
698, 1329.04013343278 
699, 1329.4557058453 
700, 1327.11256885949 
701, 1323.5630405954 
702, 1322.62164209181 
703, 1328.68306952738 
704, 1339.74505078707 
705, 1351.59231098525 
706, 1361.0464165014 
707, 1366.90221128924 
708, 1370.68075152761 
709, 1375.02576782319 
710, 1380.94002695865 
711, 1383.15698817996 
712, 1385.81598540063 
713, 1388.39523400504 
714, 1387.49590921008 
715, 1381.6440959255 
716, 1366.2826133477 
717, 1338.49977646527 
718, 1298.00230840351 
719, 1266.56793023824 
720, 1257.52611230965 
721, 1274.60922765839 
722, 1307.56042352845 
723, 1327.7753573815 
724, 1328.46368160343 
725, 1318.39509402474 
726, 1318.67664980668 
727, 1323.63053869937 
728, 1328.13913029326 
729, 1330.86905382454 
730, 1340.26360896837 
731, 1354.81299737034 
732, 1372.12697334289 
733, 1394.02109998424 
734, 1411.81197489363 
735, 1422.44743236284 
736, 1426.00881387863 
737, 1424.06937240908 
738, 1421.2097364498 
739, 1418.52805636029 
740, 1414.32938271158 
741, 1412.95477769291 
742, 1415.55846093505 
743, 1420.94169135354 
744, 1425.00407841127 
745, 1428.75541466758 
746, 1431.43268948431 
747, 1432.12836293888 
748, 1431.30422242606 
749, 1425.56670968256 
750, 1417.86110352119 
751, 1414.34597527492 
752, 1413.47773774336 
753, 1412.84454368535 
754, 1411.88121229739 
755, 1412.19237095307 
756, 1405.98278226821 
757, 1377.241460757 
758, 1298.02561712724 
759, 1113.907672288 
760, 846.680258443596 
761, 596.261838892501 
762, 475.43334212665 
763, 489.897425301674 
764, 572.154618850156 
765, 691.906319447161 
766, 850.698275741097 
767, 1019.59000065863 
768, 1160.76538579764 
769, 1253.5723052606 
770, 1303.27462368621 
771, 1330.01585500428 
772, 1341.45141472762 
773, 1342.55172382761 
774, 1341.57933671463 
775, 1339.79771207409 
776, 1337.27252143767 
777, 1333.3413323566 
778, 1328.55359108655 
779, 1323.04237647882 
780, 1317.5453696258 
781, 1313.04995394883 
782, 1307.54840071215 
783, 1300.67273789902 
784, 1293.12737217484 
785, 1286.77216468668 
786, 1279.90097802302 
787, 1271.66020568582 
788, 1261.73063451195 
789, 1250.72945313174 
790, 1237.19380500535 
791, 1222.0206288036 
792, 1207.20131704127 
793, 1194.00029551419 
794, 1183.20328735047 
795, 1176.66727528528 
796, 1175.99662298691 
797, 1174.07772819875 
798, 1168.61374965494 
799, 1159.52581589757 
800, 1148.67183810435 
801, 1137.58438546818 
802, 1127.972233835 
803, 1119.93159478455 
804, 1110.13359975255 
805, 1101.33676567874 
806, 1094.06635748768 
807, 1087.16494762507 
808, 1076.39050548402 
809, 1064.81877664719 
810, 1052.16468005974 
811, 1036.61544574596 
812, 1020.58035115684 
813, 999.043699864803 
814, 971.167359298581 
815, 940.805007950417 
816, 911.3907681085 
817, 888.817606553791 
818, 876.146729132804 
819, 871.965297269248 
820, 867.729266619751 
821, 861.834077138293 
822, 855.088179589222 
823, 848.917877977305 
824, 844.559207989456 
825, 844.40115055706 
826, 847.956836857837 
827, 844.539470116765 
828, 835.732009542409 
829, 824.816283428674 
830, 815.536414225122 
831, 808.375311548034 
832, 802.834495072616 
833, 798.53709155199 
834, 795.292344935789 
835, 792.878540146723 
836, 791.229233398172 
837, 789.535812003169 
838, 786.173093672482 
839, 779.89942903678 
840, 772.588998803115 
841, 765.664923822332 
842, 758.727307140841 
843, 748.32824932107 
844, 738.415633868148 
845, 731.905252735104 
846, 724.6928079601 
847, 714.849822675655 
848, 702.987557495378 
849, 690.770852492025 
850, 679.871208991844 
851, 664.948136809981 
852, 648.308618915807 
853, 635.074609598366 
854, 624.204848174844 
855, 617.944768776144 
856, 616.580501577104 
857, 619.072147869568 
858, 626.918744534308 
859, 628.704201770488 
860, 622.777893996604 
861, 616.446789309531 
862, 608.394944184916 
863, 598.886169538666 
864, 588.137221131057 
865, 576.256712251115 
866, 563.844241638374 
867, 552.634935308321 
868, 545.525281052107 
869, 546.274781900045 
870, 548.243675331745 
871, 547.537993894849 
872, 542.937560003797 
873, 536.618924694655 
874, 530.394872952758 
875, 524.884881984194 
876, 519.652051082644 
877, 512.945283435282 
878, 506.446187549868 
879, 500.440961726269 
880, 494.582919256607 
881, 487.917861697424 
882, 482.291903777457 
883, 477.267568316871 
884, 471.872340780694 
885, 466.336610314808 
886, 460.492403485276 
887, 453.906826343806 
888, 446.754683923621 
889, 441.859697250007 
890, 436.446743636221 
891, 429.665133255444 
892, 421.848642769634 
893, 413.998366075492 
894, 401.76594593159 
895, 387.445142755165 
896, 375.767290365905 
897, 363.989704938838 
898, 351.269413069089 
899, 340.018633150506 
900, 333.477360854129 
901, 328.634628137329 
902, 327.5099204428 
903, 327.853755364514 
904, 325.417332226098 
905, 321.874255872412 
906, 318.870851032538 
907, 314.663175634496 
908, 306.394424312439 
909, 298.674293565709 
910, 292.979655913852 
911, 288.644627399955 
912, 283.991112558185 
913, 280.117772116374 
914, 278.522723399419 
915, 277.428630728196 
916, 273.647369611643 
917, 270.421809211327 
918, 268.708888221195 
919, 267.335493791879 
920, 264.5354105049 
921, 264.325363021017 
922, 261.297352616954 
923, 255.86261229366 
924, 252.085663022686 
925, 246.801493526765 
926, 238.62567923716 
927, 228.477386677377 
928, 218.424103163858 
929, 208.304870207761 
930, 195.351610612153 
931, 179.916885328477 
932, 164.78036714986 
933, 152.937150531355 
934, 143.596743896231 
935, 136.924281279356 
936, 133.461709463869 
937, 132.507695506194 
938, 133.174044920179 
939, 133.775113978061 
940, 133.440482584154 
941, 136.183482432809 
942, 135.372722207898 
943, 132.637064368249 
944, 131.65349720014 
945, 128.297349645829 
946, 125.954859696216 
947, 124.960371740149 
948, 124.361388728401 
949, 123.409191460967 
950, 123.135127430797 
951, 122.664005249482 
952, 121.450832670736 
953, 121.299818621062 
954, 120.209871785838 
955, 119.222985731238 
956, 119.192934974583 
957, 118.944820354906 
958, 119.142708917313 
959, 118.832701698213 
960, 117.909034541851 
961, 118.010866820069 
962, 120.088437601 
963, 121.322038123547 
964, 120.680583054326 
965, 120.070102490557 
966, 119.423676637752 
967, 119.330226114465 
968, 119.319790181748 
969, 118.257915131738 
970, 117.287191322456 
971, 117.367321722915 
972, 116.18437045519 
973, 111.530348821084 
974, 112.256266717871 
975, 110.389890992736 
976, 107.515614377023 
977, 107.66795593644 
978, 104.415223284877 
979, 102.961135208059 
980, 102.34811247497 
981, 100.892301026481 
982, 100.714744115487 
983, 100.030993268024 
984, 98.3887598217587 
985, 95.8260324462681 
986, 92.6842429857738 
987, 91.6163630667807 
988, 91.1104452900454 
989, 90.2078468044079 
990, 89.2402177276307 
991, 86.0768809900822 
992, 84.8435688320059 
993, 84.7772214756037 
994, 82.4184052514138 
995, 81.3744078073998 
996, 78.2520097030701 
997, 75.673876564783 
998, 76.404269801269 
999, 74.9887697811451 
1000, 72.2123945852581 
1001, 446.339713964921 
1002, 442.85230141162 
1003, 438.914140006736 
1004, 429.897485931509 
1005, 434.717607008953 
1006, 436.160593256216 
1007, 429.388724127922 
1008, 434.471237616534 
1009, 435.923093769656 
1010, 432.820273305846 
1011, 434.764832195315 
1012, 441.866610866561 
1013, 443.919856487559 
1014, 446.645455692987 
1015, 456.015198415208 
1016, 459.684324668234 
1017, 459.617353795904 
1018, 466.669647548147 
1019, 473.579185861782 
1020, 474.98525241059 
1021, 476.147308942307 
1022, 480.242604147416 
1023, 482.653820008573 
1024, 484.489541634373 
1025, 490.24673241737 
1026, 497.357852003608 
1027, 502.851490288613 
1028, 504.008113392962 
1029, 501.909081084098 
1030, 506.507566485654 
1031, 507.1028252865 
1032, 507.443956858624 
1033, 513.496389506603 
1034, 511.429590130859 
1035, 511.431676686675 
1036, 510.422868682616 
1037, 510.506944523525 
1038, 510.467660937414 
1039, 516.96245012414 
1040, 519.354000115257 
1041, 518.565040211872 
1042, 518.607894805739 
1043, 515.708034705157 
1044, 518.252826547281 
1045, 524.89421007513 
1046, 527.820478272514 
1047, 528.705634915696 
1048, 529.269088562348 
1049, 528.578613980918 
1050, 525.42781305314 
1051, 525.251289855195 
1052, 534.161360398429 
1053, 541.78280785537 
1054, 543.968856891379 
1055, 547.313338689515 
1056, 547.139268084751 
1057, 541.495360929679 
1058, 535.002427323833 
1059, 532.557604899775 
1060, 531.121248083195 
1061, 528.40021293107 
1062, 528.966116081514 
1063, 534.299441208607 
1064, 535.271380981632 
1065, 542.093907415759 
1066, 554.40420172247 
1067, 565.084383895954 
1068, 575.971915135581 
1069, 582.127004351683 
1070, 583.498093470469 
1071, 583.873247168955 
1072, 592.17866053959 
1073, 601.464180831225 
1074, 614.468961681605 
1075, 623.291153275147 
1076, 635.269111599605 
1077, 641.135627201911 
1078, 642.407534850573 
1079, 645.790030752203 
1080, 645.73975249303 
1081, 644.953898142011 
1082, 648.632996762433 
1083, 651.141735524776 
1084, 654.234242817357 
1085, 662.374953206004 
1086, 666.285844988429 
1087, 666.598347841464 
1088, 668.628119376795 
1089, 668.888555129589 
1090, 671.82306271493 
1091, 677.498243921981 
1092, 681.461735207959 
1093, 683.932663834491 
1094, 682.996691700829 
1095, 678.433289222397 
1096, 673.017535657616 
1097, 667.982570572124 
1098, 664.802484485591 
1099, 661.687517776083 
1100, 658.252035627526 
1101, 655.517294063457 
1102, 652.95804545522 
1103, 652.032886044855 
1104, 651.435670528963 
1105, 654.987637267832 
1106, 654.261445441076 
1107, 648.710339733821 
1108, 643.858247635263 
1109, 631.380246638572 
1110, 617.581931433704 
1111, 605.980127000773 
1112, 587.556676012117 
1113, 563.418899642529 
1114, 538.506732876233 
1115, 506.854614863845 
1116, 480.53273314105 
1117, 451.998374709473 
1118, 428.211528538708 
1119, 407.706983191515 
1120, 390.618052134658 
1121, 371.013675130653 
1122, 357.420202221298 
1123, 351.340966456213 
1124, 344.166488852484 
1125, 340.570835209814 
1126, 342.809658029414 
1127, 344.783917568099 
1128, 347.108213055976 
1129, 353.108811318463 
1130, 365.663403003266 
1131, 373.853138264662 
1132, 379.10298101711 
1133, 388.498191696249 
1134, 400.445242736509 
1135, 410.898462589639 
1136, 419.788734395078 
1137, 425.024709432138 
1138, 430.892782815193 
1139, 440.114018049299 
1140, 449.370039252744 
1141, 468.005755547195 
1142, 475.003454799897 
1143, 473.965510578785 
1144, 475.598252148303 
1145, 470.146403842222 
1146, 473.16123760012 
1147, 480.181290267139 
1148, 489.079626831323 
1149, 502.658288078371 
1150, 516.462043288893 
1151, 533.87591415596 
1152, 546.149831743949 
1153, 561.276267196531 
1154, 574.944289255725 
1155, 596.976916934904 
1156, 624.664179830737 
1157, 649.29402542519 
1158, 680.92939242877 
1159, 705.145506097444 
1160, 723.816579598616 
1161, 742.926285497063 
1162, 763.965521133588 
1163, 778.558237110481 
1164, 787.0986009518 
1165, 795.573033468532 
1166, 804.654140939032 
1167, 814.303887819616 
1168, 825.856294050304 
1169, 844.21438072061 
1170, 853.089401718731 
1171, 858.256427784442 
1172, 862.868807893266 
1173, 864.470326387101 
1174, 864.482615365428 
1175, 864.703898127261 
1176, 860.331257141215 
1177, 847.786397023881 
1178, 841.246970255181 
