Wavelength,0212202100082.asd
350, 498.213852668341 
351, 524.506390914071 
352, 548.129221149063 
353, 568.649300325133 
354, 587.422916040004 
355, 607.34935618471 
356, 629.868279974839 
357, 650.938865328812 
358, 673.644517233377 
359, 697.984830174868 
360, 723.602068560059 
361, 756.978855633444 
362, 794.949517296756 
363, 834.693084674303 
364, 874.671835033162 
365, 916.400540338587 
366, 956.390666269962 
367, 991.170361898028 
368, 1019.38310058378 
369, 1035.18285383572 
370, 1040.4565086471 
371, 1039.78237609619 
372, 1034.95874260234 
373, 1033.46416601659 
374, 1036.10349109384 
375, 1038.95350357597 
376, 1041.23094396548 
377, 1042.69402720646 
378, 1041.12454508842 
379, 1031.67418214922 
380, 1021.36756274397 
381, 1008.85511811721 
382, 992.288853187845 
383, 974.218977572126 
384, 954.697247506918 
385, 940.933510309007 
386, 942.433504772832 
387, 960.939643235601 
388, 988.216810104516 
389, 1013.26670746147 
390, 1024.5951549525 
391, 1034.63138472101 
392, 1045.51575637672 
393, 1056.72380847021 
394, 1064.7086060713 
395, 1085.22417189615 
396, 1128.04337265136 
397, 1198.07894809752 
398, 1292.4852736421 
399, 1399.91919095009 
400, 1510.80908838678 
401, 1618.14591430945 
402, 1721.26551985858 
403, 1806.41669579149 
404, 1867.51268474534 
405, 1915.3982611983 
406, 1953.12361017025 
407, 1986.60908760959 
408, 2023.50299157933 
409, 2075.49405304134 
410, 2135.71569626033 
411, 2200.55996827239 
412, 2269.25342354686 
413, 2338.73060856299 
414, 2407.20876147491 
415, 2472.62977168039 
416, 2531.93219108142 
417, 2586.41880446887 
418, 2641.61939149429 
419, 2700.79823470458 
420, 2752.99189424919 
421, 2803.46658966515 
422, 2857.83289648247 
423, 2919.79948509664 
424, 2976.80157080387 
425, 3021.25061300536 
426, 3047.26223701221 
427, 3049.69097051324 
428, 3038.77484837186 
429, 3041.56409913296 
430, 3080.01751582803 
431, 3136.82813839041 
432, 3209.93771375038 
433, 3316.11288082876 
434, 3478.50045867011 
435, 3649.85516356956 
436, 3781.88534475953 
437, 3864.97130522009 
438, 3952.03908184147 
439, 4041.59732226843 
440, 4125.58153759002 
441, 4200.54871292621 
442, 4298.08700507285 
443, 4402.14939301313 
444, 4498.43670398759 
445, 4576.41954415763 
446, 4638.90992716207 
447, 4695.14427163089 
448, 4755.16137587851 
449, 4830.1927822107 
450, 4892.75188708287 
451, 4926.31267583329 
452, 4925.81651986567 
453, 4915.10913312419 
454, 4889.07156943992 
455, 4854.88975019285 
456, 4830.98917681654 
457, 4826.5011358378 
458, 4828.70559338064 
459, 4825.56923063499 
460, 4816.23724787811 
461, 4798.5225316395 
462, 4778.25554850471 
463, 4760.55462982324 
464, 4729.64884531819 
465, 4681.47919395982 
466, 4622.76420220259 
467, 4569.97123917779 
468, 4524.68864630619 
469, 4489.27103216003 
470, 4466.28705557158 
471, 4461.6053660518 
472, 4459.49292116297 
473, 4459.80833732446 
474, 4467.37077360884 
475, 4466.11192721819 
476, 4462.99818967942 
477, 4463.00268424637 
478, 4465.95392283559 
479, 4480.62611801224 
480, 4501.07376390941 
481, 4515.85058863515 
482, 4512.39080793428 
483, 4480.04659331074 
484, 4411.48676234031 
485, 4307.58461136169 
486, 4204.56063558756 
487, 4131.16249482352 
488, 4110.10170985097 
489, 4159.208146008 
490, 4236.25135487887 
491, 4299.53774258362 
492, 4322.50564038615 
493, 4331.3287348118 
494, 4344.57467310066 
495, 4370.21670288326 
496, 4404.39260988254 
497, 4413.9413383444 
498, 4401.94605375423 
499, 4376.41655251737 
500, 4338.43695232147 
501, 4310.44176020873 
502, 4300.43590216984 
503, 4310.60074051057 
504, 4350.11107234565 
505, 4406.13992629463 
506, 4463.7848658998 
507, 4508.37657217131 
508, 4542.70896083529 
509, 4569.41603212002 
510, 4593.92499616727 
511, 4630.18809878818 
512, 4654.75258066563 
513, 4658.58694750567 
514, 4641.58386160837 
515, 4604.34187653896 
516, 4553.47489996739 
517, 4502.62415473088 
518, 4472.66462084065 
519, 4510.51140160131 
520, 4619.04885345483 
521, 4771.19452215072 
522, 4899.59025859275 
523, 4995.2986154399 
524, 5062.04989565832 
525, 5112.18872591924 
526, 5133.95856502472 
527, 5143.85989778138 
528, 5172.39902043359 
529, 5272.88703355616 
530, 5407.25265424105 
531, 5521.70867211433 
532, 5569.97211651182 
533, 5588.1832167309 
534, 5614.1967504322 
535, 5668.80474581201 
536, 5751.80142350438 
537, 5812.929047385 
538, 5841.87420022892 
539, 5845.26682065722 
540, 5842.37329765939 
541, 5848.0774250328 
542, 5878.89038593299 
543, 5945.97528237039 
544, 6022.75365477438 
545, 6090.57444038747 
546, 6138.42979219575 
547, 6164.45203863138 
548, 6182.42908224334 
549, 6203.28230727394 
550, 6233.22183006312 
551, 6266.48196621821 
552, 6291.39238215588 
553, 6308.27516723856 
554, 6327.00004998729 
555, 6342.21764616904 
556, 6336.74878914727 
557, 6301.44875610928 
558, 6245.17698017432 
559, 6195.87254204768 
560, 6171.95526786405 
561, 6181.53685796704 
562, 6210.22244895385 
563, 6227.31285865832 
564, 6217.68286547124 
565, 6186.42576412696 
566, 6141.59174780446 
567, 6096.7577622968 
568, 6060.22685253507 
569, 6022.2240126743 
570, 5974.38509960803 
571, 5929.26972194201 
572, 5910.76911589501 
573, 5915.53136629867 
574, 5914.65399388062 
575, 5888.70691066761 
576, 5838.34362353131 
577, 5790.27512817966 
578, 5764.2844974547 
579, 5771.62807351623 
580, 5801.02297565516 
581, 5852.5605131762 
582, 5915.00571771778 
583, 5966.71968356567 
584, 5998.35623581193 
585, 5995.75139996623 
586, 5957.4210373326 
587, 5910.69455043102 
588, 5852.29299547746 
589, 5773.60882681682 
590, 5675.86485642076 
591, 5638.34445500452 
592, 5663.24844985922 
593, 5712.98507494889 
594, 5711.11916183481 
595, 5680.03754883741 
596, 5636.90766847492 
597, 5593.93429069087 
598, 5544.32378159656 
599, 5484.61291848 
600, 5420.55162993153 
601, 5364.27547013365 
602, 5320.91149463973 
603, 5295.96650264524 
604, 5289.07404913325 
605, 5292.44560234549 
606, 5278.21096899418 
607, 5246.45070191856 
608, 5208.32479800849 
609, 5169.06072257701 
610, 5131.69631061443 
611, 5098.23253061551 
612, 5069.34160831193 
613, 5037.75311921405 
614, 5001.90045037921 
615, 4964.61924700524 
616, 4935.38243510544 
617, 4914.04186839183 
618, 4910.02671487522 
619, 4930.75195164304 
620, 4947.6436600044 
621, 4946.77105550578 
622, 4922.626784042 
623, 4878.37293145545 
624, 4828.38963641905 
625, 4781.37761589813 
626, 4741.47925463246 
627, 4705.77236393416 
628, 4671.0738779657 
629, 4637.75482107064 
630, 4610.48318691515 
631, 4608.80770281997 
632, 4620.69202040763 
633, 4635.87635624416 
634, 4654.82806871674 
635, 4667.72434206829 
636, 4675.06671979547 
637, 4679.64536767496 
638, 4678.03363826804 
639, 4667.71239142003 
640, 4645.17933731973 
641, 4608.01361040222 
642, 4576.71002083131 
643, 4555.79193506583 
644, 4541.72678344345 
645, 4522.08016436034 
646, 4491.77315030237 
647, 4453.05274874819 
648, 4412.91667075996 
649, 4380.5296690351 
650, 4354.33819997917 
651, 4338.73262405948 
652, 4342.8654729064 
653, 4329.79391202792 
654, 4278.64434579456 
655, 4187.13840737814 
656, 4080.17623808829 
657, 4001.59178803918 
658, 3998.98746592655 
659, 4097.32282030407 
660, 4199.05549281198 
661, 4256.28374072237 
662, 4265.18744323304 
663, 4268.12979258605 
664, 4262.7146405846 
665, 4254.42355159055 
666, 4248.47552158959 
667, 4248.39777771738 
668, 4245.71091470145 
669, 4239.41832889185 
670, 4232.52933240473 
671, 4223.35179275403 
672, 4212.24137444528 
673, 4203.55904824781 
674, 4206.6359743476 
675, 4209.52662499495 
676, 4211.38891926739 
677, 4213.29343824275 
678, 4212.205067066 
679, 4211.0029518437 
680, 4209.54810153682 
681, 4205.82451574114 
682, 4200.61487592302 
683, 4189.77838994678 
684, 4154.96049845992 
685, 4059.29228150085 
686, 3893.87510317522 
687, 3672.32294943884 
688, 3446.6860582433 
689, 3351.81561676842 
690, 3417.78572541998 
691, 3583.41816119107 
692, 3733.51120578008 
693, 3866.48828157471 
694, 3962.03216950862 
695, 4017.60480982659 
696, 4055.5680565926 
697, 4086.22916618574 
698, 4104.9120895764 
699, 4105.49461103848 
700, 4094.23708526209 
701, 4081.15142532392 
702, 4076.7766380657 
703, 4090.11824948053 
704, 4119.68323182184 
705, 4154.2739849184 
706, 4183.02148846774 
707, 4197.63917211639 
708, 4206.88597047194 
709, 4216.3220257362 
710, 4228.06494880491 
711, 4236.54925756768 
712, 4241.8158993486 
713, 4241.89054561769 
714, 4232.9384002081 
715, 4210.25341103256 
716, 4154.46721067647 
717, 4058.05940203487 
718, 3930.67787262414 
719, 3822.66076485749 
720, 3779.67597155597 
721, 3821.07947421893 
722, 3915.71192427402 
723, 3982.23584654337 
724, 3993.026372709 
725, 3962.70102536622 
726, 3955.03262457699 
727, 3964.44071366313 
728, 3979.06270342548 
729, 3988.46710980673 
730, 4012.53601529536 
731, 4057.99796540019 
732, 4121.73393184285 
733, 4187.36033185125 
734, 4244.77814188043 
735, 4282.27005306289 
736, 4292.84176969744 
737, 4287.39754009814 
738, 4278.42432542927 
739, 4269.33561648194 
740, 4256.27603995741 
741, 4248.99574254321 
742, 4251.01075673117 
743, 4261.55352111732 
744, 4275.22609863774 
745, 4282.84659266091 
746, 4283.6187518942 
747, 4278.98742663203 
748, 4266.64183262031 
749, 4247.32129566408 
750, 4223.70304037422 
751, 4200.22638212356 
752, 4184.0811201297 
753, 4173.53718700737 
754, 4164.7995183154 
755, 4152.67708936966 
756, 4124.69371103808 
757, 4031.01175413441 
758, 3793.92328306842 
759, 3285.00997451365 
760, 2536.31898423234 
761, 1800.75268107298 
762, 1386.41051390064 
763, 1378.24711630137 
764, 1587.63000193987 
765, 1915.14147599723 
766, 2344.17251441364 
767, 2811.2792949305 
768, 3213.34762203731 
769, 3487.40512327549 
770, 3634.96257487461 
771, 3701.29803751316 
772, 3719.16572057016 
773, 3713.55686616103 
774, 3699.23420691464 
775, 3678.25109614745 
776, 3654.10428747073 
777, 3629.39530087584 
778, 3602.71965741959 
779, 3572.08876705125 
780, 3540.51092028122 
781, 3514.30549081901 
782, 3487.60108136411 
783, 3457.59970410507 
784, 3424.65486290654 
785, 3393.06508777369 
786, 3361.53565226719 
787, 3327.70833654646 
788, 3289.58598669265 
789, 3246.9642938584 
790, 3201.90566135335 
791, 3155.65214448347 
792, 3109.71279851462 
793, 3067.78240903993 
794, 3033.23898653227 
795, 3007.87147881291 
796, 2991.4877811402 
797, 2980.74106492063 
798, 2965.48511564796 
799, 2940.8390431572 
800, 2909.97693267698 
801, 2877.33955023989 
802, 2848.01543382148 
803, 2823.60279726427 
804, 2798.24573036543 
805, 2775.87786132426 
806, 2755.80918863801 
807, 2735.15651048332 
808, 2709.55106085232 
809, 2679.32879412649 
810, 2645.36913466244 
811, 2608.23853565133 
812, 2566.10030363448 
813, 2509.34640697167 
814, 2437.07997702589 
815, 2357.9246509153 
816, 2282.86083882484 
817, 2223.92178353518 
818, 2188.36056404774 
819, 2176.60136617335 
820, 2174.54642244092 
821, 2169.54699627382 
822, 2156.04116380669 
823, 2141.68562619114 
824, 2131.55335252476 
825, 2134.58302710596 
826, 2150.60645034072 
827, 2147.53603766479 
828, 2126.25161983481 
829, 2097.50149280694 
830, 2075.38501779296 
831, 2059.58808713165 
832, 2048.11087857759 
833, 2038.93953038662 
834, 2030.9100982163 
835, 2028.12697122454 
836, 2026.22437883957 
837, 2020.98509257891 
838, 2010.02433602129 
839, 1994.96382898021 
840, 1975.60289053773 
841, 1953.24376711621 
842, 1931.95194048141 
843, 1909.36226516042 
844, 1885.41039177189 
845, 1860.76116263424 
846, 1836.99917269544 
847, 1807.46919198814 
848, 1773.35369833361 
849, 1737.39733586213 
850, 1697.43058254035 
851, 1653.19872007748 
852, 1608.98746706302 
853, 1570.63203373411 
854, 1540.14298708997 
855, 1514.05573826443 
856, 1497.82344198038 
857, 1499.47546429969 
858, 1508.10226110402 
859, 1503.39617650323 
860, 1483.53525206622 
861, 1462.41278673743 
862, 1436.45604922978 
863, 1403.02794616978 
864, 1364.23468805343 
865, 1327.00188677864 
866, 1290.36733249448 
867, 1257.39432261134 
868, 1232.51505372155 
869, 1220.6727045697 
870, 1216.20183969248 
871, 1207.51661475329 
872, 1188.75876179651 
873, 1166.19166017609 
874, 1143.12409995383 
875, 1120.43925729635 
876, 1098.03507323038 
877, 1075.66060289328 
878, 1054.51670663199 
879, 1033.83466506663 
880, 1012.68041745118 
881, 991.317600754643 
882, 971.11482645267 
883, 952.268406387592 
884, 934.694824180037 
885, 919.51074763015 
886, 901.372570661619 
887, 881.139567310598 
888, 862.144043075074 
889, 845.935473884425 
890, 829.049550669004 
891, 810.194637368837 
892, 789.455451142462 
893, 767.459779044852 
894, 741.949844810817 
895, 713.712587234171 
896, 685.090010241211 
897, 656.346301224512 
898, 629.666386866456 
899, 607.943616180266 
900, 593.306891759675 
901, 582.956903008683 
902, 577.014625889176 
903, 573.535480757886 
904, 569.645993760747 
905, 565.894250295863 
906, 559.286935799028 
907, 547.915288064146 
908, 532.001132253296 
909, 516.896788201648 
910, 504.244521138521 
911, 494.33467378376 
912, 486.640587252353 
913, 481.412246783384 
914, 476.805488940442 
915, 471.663928926646 
916, 466.085484373075 
917, 463.338619296665 
918, 460.050112893971 
919, 455.815692411362 
920, 452.662213461786 
921, 451.17379838334 
922, 446.483722750979 
923, 438.276336121244 
924, 429.511660717451 
925, 420.043008734983 
926, 406.935314570433 
927, 390.306797030882 
928, 371.980693945689 
929, 349.84852437631 
930, 325.615064850763 
931, 299.717408441096 
932, 272.836456051435 
933, 251.525749265423 
934, 232.361390599703 
935, 218.364261646561 
936, 213.992713978801 
937, 211.851855453746 
938, 213.02675819696 
939, 215.378411578391 
940, 216.118384978135 
941, 217.164038840162 
942, 217.436258233612 
943, 215.318757708999 
944, 210.07692288016 
945, 204.174900996705 
946, 199.449810397089 
947, 195.246471895335 
948, 191.405294716166 
949, 193.030651864913 
950, 191.183025547813 
951, 188.033836040288 
952, 187.298220471913 
953, 186.931043086968 
954, 183.166018025052 
955, 180.253475097806 
956, 180.339360082557 
957, 177.149299604025 
958, 175.622331613966 
959, 174.350222320098 
960, 172.477344513821 
961, 171.999475532198 
962, 170.241636783702 
963, 168.647320097497 
964, 167.512245603357 
965, 165.106902654467 
966, 162.592626205875 
967, 160.530193544603 
968, 158.721040654143 
969, 156.357334786782 
970, 152.964712352834 
971, 148.384667455388 
972, 144.034646890225 
973, 141.284889510753 
974, 136.599087823262 
975, 131.18019962694 
976, 126.282820852529 
977, 122.283606993056 
978, 116.854986062562 
979, 113.750685960336 
980, 110.861739694123 
981, 106.210868349388 
982, 103.257794046236 
983, 101.165780341063 
984, 98.1199982668611 
985, 94.0095875757451 
986, 91.5587840734768 
987, 88.447509569423 
988, 84.9018375044834 
989, 81.2518956057812 
990, 77.5362886050981 
991, 74.63105751512 
992, 71.6300995621311 
993, 68.3552672779148 
994, 65.4594749529318 
995, 64.3225363521951 
996, 61.2680632501732 
997, 57.3448903473396 
998, 54.9315234622391 
999, 52.9999676714355 
1000, 50.8522025797657 
1001, 290.259966299985 
1002, 278.048043542116 
1003, 271.009885016646 
1004, 270.460141379591 
1005, 268.465875909391 
1006, 259.999267445283 
1007, 254.322716941334 
1008, 245.349449967159 
1009, 241.305403585076 
1010, 246.449422357538 
1011, 244.222202494785 
1012, 238.457282337226 
1013, 236.354004582988 
1014, 233.21502566834 
1015, 229.969829541022 
1016, 232.286586116269 
1017, 231.681940628582 
1018, 229.49161076721 
1019, 227.2048379875 
1020, 226.405953005418 
1021, 225.893169923035 
1022, 225.727366338281 
1023, 227.018381848497 
1024, 225.197366891897 
1025, 222.603153816449 
1026, 229.38159535516 
1027, 233.764802864725 
1028, 234.93978284014 
1029, 235.140794055575 
1030, 230.28996781118 
1031, 231.610902116591 
1032, 235.762733528003 
1033, 238.8752873412 
1034, 238.821674526606 
1035, 239.745942185078 
1036, 236.899904495939 
1037, 236.410014118452 
1038, 239.012472104346 
1039, 242.965725458369 
1040, 249.156447820293 
1041, 253.735209925645 
1042, 257.415057315363 
1043, 266.069941741045 
1044, 265.428245951468 
1045, 268.543138627864 
1046, 274.018078849392 
1047, 274.981948107759 
1048, 272.563381000617 
1049, 279.326797808409 
1050, 276.117951486177 
1051, 272.597948690783 
1052, 282.301527218918 
1053, 290.608470705697 
1054, 302.203443505554 
1055, 313.75564745946 
1056, 319.979299984348 
1057, 323.738747929143 
1058, 330.851022090751 
1059, 340.835214480117 
1060, 350.682501317682 
1061, 365.715234824118 
1062, 375.19204007089 
1063, 381.945115271956 
1064, 386.968932057346 
1065, 394.380793115703 
1066, 401.037332511016 
1067, 406.305365039419 
1068, 416.005478422105 
1069, 424.688948169614 
1070, 433.353091662942 
1071, 451.210739565458 
1072, 465.712958219812 
1073, 479.801145559674 
1074, 499.151003229267 
1075, 509.823479571628 
1076, 514.413700798851 
1077, 518.281844007039 
1078, 523.440285995685 
1079, 527.954108375078 
1080, 537.61356864195 
1081, 553.89914213108 
1082, 564.596412317101 
1083, 566.803506870814 
1084, 567.781297973251 
1085, 568.507487029409 
1086, 570.849788232271 
1087, 576.110423572819 
1088, 577.789139234314 
1089, 578.848916506327 
1090, 578.683870491465 
1091, 573.620162553061 
1092, 574.36195654609 
1093, 577.031567446962 
1094, 576.61410340411 
1095, 577.802962948423 
1096, 578.548189294782 
1097, 577.148366490247 
1098, 573.267297578364 
1099, 571.513452560764 
1100, 571.027635069832 
1101, 567.877122754552 
1102, 563.57562532689 
1103, 561.214132433866 
1104, 560.292624401792 
1105, 555.051630323006 
1106, 547.832000127606 
1107, 543.381807776694 
1108, 529.575144020171 
1109, 510.22826515461 
1110, 497.46421839826 
1111, 480.995970170734 
1112, 461.471099753982 
1113, 440.496000638674 
1114, 420.902780780946 
1115, 398.181612575045 
1116, 375.22785943995 
1117, 350.914255071457 
1118, 329.67808447384 
1119, 307.980812867339 
1120, 286.521529068035 
1121, 268.849628750116 
1122, 258.870208617069 
1123, 249.836085831513 
1124, 241.252067544736 
1125, 234.653429849757 
1126, 230.295017017431 
1127, 229.961446083424 
1128, 231.27942602753 
1129, 234.649527400162 
1130, 248.146555586319 
1131, 251.762078983664 
1132, 246.631096249528 
1133, 249.854884490221 
1134, 253.010722638748 
1135, 258.240395994921 
1136, 267.179346084133 
1137, 280.238227518028 
1138, 291.508756987056 
1139, 294.785713235833 
1140, 297.166700921378 
1141, 298.618981675999 
1142, 298.098576484336 
1143, 290.020596289775 
1144, 288.23969151225 
1145, 290.317288727653 
1146, 288.520982567765 
1147, 285.331675137276 
1148, 284.887826648568 
1149, 284.938886582073 
1150, 282.234329979092 
1151, 283.022796417642 
1152, 285.848596384328 
1153, 289.386047976769 
1154, 293.323194860526 
1155, 297.35510641299 
1156, 306.271640428233 
1157, 308.161633457243 
1158, 303.845826444424 
1159, 303.896363297621 
1160, 301.883553540491 
1161, 302.194168279705 
1162, 313.111539523054 
1163, 311.562955480668 
1164, 301.996254275615 
1165, 292.97027526602 
1166, 283.358870693541 
1167, 273.129716652681 
1168, 268.704704208332 
1169, 274.998096130939 
1170, 269.937006932887 
1171, 261.052797375795 
1172, 252.648043152501 
1173, 238.386373541375 
1174, 230.232317266298 
1175, 226.272580807351 
1176, 219.463653643278 
1177, 212.71337733116 
