Wavelength,0212202100013.asd
350, 3732.32249963458 
351, 3924.27380769607 
352, 4101.10522037243 
353, 4253.04802595766 
354, 4408.82325161946 
355, 4571.92098312039 
356, 4739.14951630556 
357, 4909.82443729796 
358, 5086.41142457332 
359, 5276.54941655872 
360, 5492.11615562316 
361, 5752.9019902097 
362, 6041.2805402152 
363, 6344.4350491069 
364, 6657.45939498288 
365, 6978.27150706027 
366, 7281.29744990821 
367, 7539.74873820986 
368, 7733.66986756056 
369, 7846.84161502502 
370, 7890.12033013898 
371, 7889.44500138872 
372, 7875.9879898042 
373, 7878.89901004848 
374, 7901.17349676354 
375, 7927.59018300532 
376, 7960.94604587504 
377, 7980.03572253689 
378, 7962.07928438404 
379, 7886.87786722834 
380, 7796.26282807535 
381, 7695.23078435564 
382, 7579.6336509554 
383, 7444.25323492345 
384, 7314.46108685884 
385, 7239.42000001488 
386, 7273.01756109394 
387, 7434.93298745699 
388, 7634.7277473976 
389, 7799.22991870528 
390, 7891.24057098829 
391, 7997.46398804486 
392, 8088.99025549257 
393, 8151.23976778158 
394, 8240.64161156623 
395, 8453.13828571083 
396, 8833.22298912104 
397, 9393.47142963243 
398, 10137.6191337527 
399, 10976.4362162606 
400, 11838.4453970436 
401, 12673.9500331884 
402, 13445.770130975 
403, 14083.2348468178 
404, 14561.4091465391 
405, 14940.1586629401 
406, 15239.8828392978 
407, 15516.2247330404 
408, 15833.3018766669 
409, 16242.8546645755 
410, 16724.4089420803 
411, 17253.5626471543 
412, 17804.2205635935 
413, 18351.8050616979 
414, 18888.4514943511 
415, 19400.6211482507 
416, 19857.3006192044 
417, 20301.8097221539 
418, 20756.3839755863 
419, 21219.9560071519 
420, 21627.9197631568 
421, 22048.399316568 
422, 22506.4204559893 
423, 22984.7622321897 
424, 23421.5626671084 
425, 23767.2277361912 
426, 23969.7995314545 
427, 23960.621800536 
428, 23896.1745351977 
429, 23972.3179305238 
430, 24318.7920219081 
431, 24775.3726059008 
432, 25401.6778377195 
433, 26318.5436245237 
434, 27632.1481801581 
435, 28938.8490143 
436, 29938.2706846223 
437, 30601.1842541523 
438, 31306.3736519036 
439, 32020.1724139237 
440, 32700.2317741849 
441, 33338.9903845646 
442, 34137.5559254795 
443, 34952.7818084168 
444, 35692.5455639532 
445, 36318.5656765411 
446, 36824.7308098186 
447, 37292.500525276 
448, 37798.2408588002 
449, 38398.2720009492 
450, 38871.1113974842 
451, 39110.7833846454 
452, 39102.898186865 
453, 39008.3679710555 
454, 38807.9324187182 
455, 38562.0831710977 
456, 38401.8907323161 
457, 38373.4385043651 
458, 38394.7072899283 
459, 38380.1267124178 
460, 38291.798667134 
461, 38155.8377809832 
462, 38003.46034884 
463, 37847.292014727 
464, 37596.3325380045 
465, 37212.2171498197 
466, 36746.9760753688 
467, 36336.9011511408 
468, 35986.8712815039 
469, 35732.6045022361 
470, 35593.0005865427 
471, 35551.8153041754 
472, 35530.9548394515 
473, 35537.183453369 
474, 35599.8135017745 
475, 35597.313161821 
476, 35575.1399695682 
477, 35574.5663693621 
478, 35611.6023471516 
479, 35751.4695092908 
480, 35927.5308036525 
481, 36035.6041994231 
482, 35996.1437731593 
483, 35699.034166298 
484, 35100.2685737865 
485, 34248.15520727 
486, 33475.0797393287 
487, 32963.0735478813 
488, 32858.4512283796 
489, 33309.6857656449 
490, 33928.3528898549 
491, 34408.5279611574 
492, 34582.1411083013 
493, 34657.2992229704 
494, 34779.6378541687 
495, 35001.6818257671 
496, 35276.4890617334 
497, 35349.2474752013 
498, 35241.9982585465 
499, 35024.4744649979 
500, 34732.8643752516 
501, 34532.0889483361 
502, 34478.0860761249 
503, 34585.9356864111 
504, 34952.7299035235 
505, 35426.1131927438 
506, 35880.4523258873 
507, 36242.2974152329 
508, 36516.1650940766 
509, 36737.1361227433 
510, 36952.7765258012 
511, 37233.6683768976 
512, 37418.2823078366 
513, 37443.7150372795 
514, 37305.8747119505 
515, 36978.9038989081 
516, 36550.3330412901 
517, 36156.3484342357 
518, 35969.377322779 
519, 36357.8708359702 
520, 37311.2093242371 
521, 38575.809958977 
522, 39591.9183718351 
523, 40345.5922346009 
524, 40878.0525992882 
525, 41262.6927040687 
526, 41412.5045380804 
527, 41486.4254487306 
528, 41754.116642479 
529, 42671.1389646381 
530, 43800.5351557136 
531, 44697.6754873418 
532, 45035.7827958507 
533, 45157.5150461944 
534, 45393.8512621546 
535, 45898.0047088959 
536, 46613.4690194678 
537, 47097.9290580921 
538, 47302.009999402 
539, 47319.6132782305 
540, 47311.1860942728 
541, 47374.2584995228 
542, 47655.2254795928 
543, 48266.963933478 
544, 48922.28847181 
545, 49474.1936101463 
546, 49851.6247022152 
547, 50063.869239309 
548, 50212.0844097346 
549, 50399.1729804403 
550, 50681.571040602 
551, 50956.5169838749 
552, 51163.7333550144 
553, 51319.2553542083 
554, 51495.0111922435 
555, 51626.3659616573 
556, 51572.2530211744 
557, 51263.2493476316 
558, 50774.7226338665 
559, 50385.6535860512 
560, 50245.5638400276 
561, 50389.2518229806 
562, 50649.0023149105 
563, 50784.5046959186 
564, 50692.5701389962 
565, 50439.5000482894 
566, 50090.1529711218 
567, 49751.1056830011 
568, 49481.1631987207 
569, 49185.2270641277 
570, 48781.0127043449 
571, 48405.3227220729 
572, 48308.6289655258 
573, 48414.8475164212 
574, 48427.3801299716 
575, 48177.8147049516 
576, 47746.0149678435 
577, 47380.6854287527 
578, 47207.3841756068 
579, 47275.702693915 
580, 47548.4267208991 
581, 48017.5181301419 
582, 48573.0453024985 
583, 49015.533734091 
584, 49284.983972064 
585, 49256.5579042114 
586, 48923.0242961307 
587, 48557.9309367736 
588, 48113.265835059 
589, 47476.0617924748 
590, 46640.7014023372 
591, 46504.4879451369 
592, 46849.4187754205 
593, 47247.9051590114 
594, 47159.5623303397 
595, 46884.1582217181 
596, 46542.2313930534 
597, 46187.409667237 
598, 45778.8477956738 
599, 45278.6346637602 
600, 44742.847597761 
601, 44289.2061457497 
602, 43930.190959365 
603, 43757.4943772547 
604, 43773.5951803396 
605, 43829.5483151051 
606, 43715.7415713546 
607, 43451.7006595144 
608, 43146.5056970795 
609, 42838.2051702602 
610, 42551.1409606811 
611, 42303.3002885134 
612, 42102.7031155024 
613, 41871.9345372683 
614, 41594.8091448198 
615, 41299.0977285731 
616, 41075.5785496449 
617, 40933.6895666801 
618, 40957.8936878099 
619, 41205.527942262 
620, 41397.2759195666 
621, 41402.8719920083 
622, 41190.1532791505 
623, 40829.2264790661 
624, 40443.1458276339 
625, 40089.6388075046 
626, 39792.516881549 
627, 39556.0864653889 
628, 39289.4564937092 
629, 39017.6496633664 
630, 38848.4188595005 
631, 38894.6060928585 
632, 39053.0923626319 
633, 39234.6163406451 
634, 39427.947742135 
635, 39570.4961207877 
636, 39666.8221193442 
637, 39738.6159278423 
638, 39778.2142352445 
639, 39719.8827742501 
640, 39528.3850646751 
641, 39214.896580063 
642, 39007.578369846 
643, 38907.8575144535 
644, 38843.9512418922 
645, 38689.8203644117 
646, 38453.9879897386 
647, 38169.3012659571 
648, 37886.6546548448 
649, 37647.6829020575 
650, 37450.4496579234 
651, 37349.5601381034 
652, 37439.9916654529 
653, 37354.4552007333 
654, 36914.8472239822 
655, 36103.2787031697 
656, 35088.2959824095 
657, 34415.5747274127 
658, 34547.3380174238 
659, 35637.1054148871 
660, 36483.0065865087 
661, 36910.2160291426 
662, 37006.2338267616 
663, 37049.3389557993 
664, 36997.3526830292 
665, 36938.9719371135 
666, 36941.3720904265 
667, 36948.5312401154 
668, 36934.613002679 
669, 36907.5437981737 
670, 36886.3426984835 
671, 36805.0455014532 
672, 36713.1148814323 
673, 36667.2471822689 
674, 36715.7739807313 
675, 36766.9253350779 
676, 36801.4105910021 
677, 36824.4514057469 
678, 36852.130551815 
679, 36863.6464555938 
680, 36859.5137380399 
681, 36851.0316361721 
682, 36834.4646179614 
683, 36756.6294918448 
684, 36455.0218965341 
685, 35629.6757361187 
686, 34128.9475228842 
687, 32038.3581100846 
688, 29898.542270497 
689, 29341.7210570635 
690, 30190.9046867153 
691, 31772.6605970388 
692, 33153.9975492978 
693, 34349.8594859493 
694, 35200.2650331139 
695, 35694.4780494668 
696, 36033.8437297172 
697, 36316.3825314587 
698, 36490.662161786 
699, 36497.3002093288 
700, 36419.5491671444 
701, 36343.5673703935 
702, 36348.6163701906 
703, 36497.2315818949 
704, 36801.7106876209 
705, 37140.7270981178 
706, 37409.5119773755 
707, 37552.9039734815 
708, 37674.5108607799 
709, 37786.7954654845 
710, 37883.4928681787 
711, 37988.8593981023 
712, 38052.1453919591 
713, 38064.2176068502 
714, 38027.6620686287 
715, 37868.1716104223 
716, 37426.245349852 
717, 36628.1920228293 
718, 35523.5845736723 
719, 34620.5104711773 
720, 34338.9249978174 
721, 34825.8961722117 
722, 35716.0245402014 
723, 36251.7808824401 
724, 36262.8537248762 
725, 35994.1525964696 
726, 35986.2152108025 
727, 36104.30270578 
728, 36215.9848751816 
729, 36272.8562282862 
730, 36492.0513033451 
731, 36899.8668375943 
732, 37444.0308198085 
733, 38018.0857524022 
734, 38493.260607578 
735, 38771.8896485458 
736, 38819.7677081062 
737, 38770.4221325535 
738, 38699.23213399 
739, 38620.1495721051 
740, 38505.1282366746 
741, 38467.8034535479 
742, 38520.2711331197 
743, 38643.7793170731 
744, 38805.0166626916 
745, 38906.9300144608 
746, 38950.5163907394 
747, 38959.5365581646 
748, 38910.1315152103 
749, 38783.6870102137 
750, 38615.1139475305 
751, 38474.0332566648 
752, 38412.6942597063 
753, 38411.0983712429 
754, 38425.3622357264 
755, 38393.1941921522 
756, 38225.0418912777 
757, 37444.826833122 
758, 35246.1521875557 
759, 30169.6753379066 
760, 22883.3980129311 
761, 16065.1285223535 
762, 12724.4025517438 
763, 13116.989123036 
764, 15364.939704974 
765, 18632.3554566868 
766, 22974.945481429 
767, 27565.0446792508 
768, 31435.8658910516 
769, 34043.2735791331 
770, 35463.9441486782 
771, 36151.637164386 
772, 36419.6417957654 
773, 36491.8235805546 
774, 36479.480386126 
775, 36405.3991992808 
776, 36307.643050875 
777, 36211.9546122646 
778, 36076.8805744934 
779, 35914.5011976576 
780, 35755.2343040254 
781, 35633.7186645561 
782, 35491.0109216151 
783, 35316.5384143516 
784, 35120.2961983517 
785, 34930.5658542591 
786, 34744.7126499297 
787, 34522.8945971325 
788, 34234.54065113 
789, 33899.880352375 
790, 33541.1432669544 
791, 33164.7636158878 
792, 32775.8537910245 
793, 32400.5362159002 
794, 32105.1540036917 
795, 31923.3996922056 
796, 31847.2818725788 
797, 31789.1027425122 
798, 31667.2261331987 
799, 31447.4397897451 
800, 31155.6262761453 
801, 30846.6189247232 
802, 30560.8192676946 
803, 30311.0380480666 
804, 30062.4871737653 
805, 29840.8022761565 
806, 29631.4079213371 
807, 29402.2746787098 
808, 29115.3114153954 
809, 28776.1652208738 
810, 28409.086670507 
811, 28032.6704979919 
812, 27581.7554608507 
813, 26986.7335427958 
814, 26237.965965498 
815, 25395.2963939983 
816, 24609.7599657547 
817, 23985.4224127967 
818, 23587.7855855379 
819, 23439.8216770055 
820, 23368.7259823993 
821, 23261.0320350645 
822, 23074.9932292029 
823, 22874.6946298352 
824, 22744.7251453806 
825, 22752.5172333331 
826, 22866.5130165214 
827, 22780.6133972713 
828, 22523.016816607 
829, 22198.7911485706 
830, 21937.8788745668 
831, 21752.0315862187 
832, 21604.7556320108 
833, 21479.4553499838 
834, 21381.3354200684 
835, 21323.6325871637 
836, 21285.9308213919 
837, 21231.0549674306 
838, 21112.8422277892 
839, 20949.2817698019 
840, 20755.7298116821 
841, 20545.6264788628 
842, 20327.5977343711 
843, 20103.196720807 
844, 19881.7022878236 
845, 19668.5853224093 
846, 19462.2646257913 
847, 19202.5782971387 
848, 18889.9762664259 
849, 18547.6866535308 
850, 18193.9840618732 
851, 17786.701070331 
852, 17373.5349581 
853, 17034.4953777608 
854, 16780.2451624742 
855, 16580.7263316181 
856, 16500.4607945304 
857, 16623.4711703046 
858, 16788.6560957585 
859, 16825.0874996719 
860, 16707.3160695671 
861, 16535.7753775788 
862, 16323.9173208708 
863, 16048.6993499105 
864, 15717.3936143788 
865, 15377.6302102106 
866, 15059.8139369261 
867, 14797.0046871262 
868, 14633.4524080058 
869, 14623.1822006396 
870, 14665.7617343065 
871, 14654.2910706075 
872, 14541.8069313844 
873, 14384.8686280819 
874, 14214.5217735457 
875, 14042.191033492 
876, 13871.4164361644 
877, 13705.6215059205 
878, 13544.4732002943 
879, 13386.1564251282 
880, 13227.2794194423 
881, 13061.293796687 
882, 12898.1673334487 
883, 12745.0588177377 
884, 12602.8971928396 
885, 12459.1969094731 
886, 12301.7760173995 
887, 12135.4322931674 
888, 11971.1873947744 
889, 11811.7917305956 
890, 11654.3900722679 
891, 11478.8583442464 
892, 11261.554620793 
893, 11000.6015980624 
894, 10700.4484189845 
895, 10369.2284131999 
896, 10018.7073210914 
897, 9662.54364134357 
898, 9327.85231143676 
899, 9048.51679435934 
900, 8852.86187908607 
901, 8733.07459393096 
902, 8669.74405426238 
903, 8636.72322458083 
904, 8605.28142439193 
905, 8554.50025722928 
906, 8463.10090733119 
907, 8315.49853556502 
908, 8111.7773485441 
909, 7900.56542953462 
910, 7722.35660234495 
911, 7590.60986129583 
912, 7494.64296114197 
913, 7415.01599900921 
914, 7336.50521882138 
915, 7255.99681222156 
916, 7180.76340909974 
917, 7122.22023512286 
918, 7072.93565758727 
919, 7027.54115057421 
920, 6982.44928232336 
921, 6928.70817214913 
922, 6860.18852685675 
923, 6766.47898193896 
924, 6637.10528625558 
925, 6477.27383196756 
926, 6287.4450105518 
927, 6059.72075909688 
928, 5783.48067001076 
929, 5462.50353008191 
930, 5100.44775085238 
931, 4716.0313199055 
932, 4340.17889695617 
933, 4008.53207962805 
934, 3744.11400684063 
935, 3562.23377469053 
936, 3466.2236635437 
937, 3438.76418273252 
938, 3452.97405766564 
939, 3485.05486203893 
940, 3516.77147816446 
941, 3539.99267757027 
942, 3544.12018245543 
943, 3514.35850162195 
944, 3444.93193426562 
945, 3358.14386607582 
946, 3288.39506055012 
947, 3246.5405880292 
948, 3227.54879810487 
949, 3217.79524336459 
950, 3208.36182051395 
951, 3196.34554953357 
952, 3181.68644031255 
953, 3163.89992138926 
954, 3146.04734691325 
955, 3129.4016818792 
956, 3115.37361793482 
957, 3106.5190562241 
958, 3099.64518933491 
959, 3095.08887211974 
960, 3093.66521328949 
961, 3095.45549419833 
962, 3098.13083453925 
963, 3102.47318198505 
964, 3108.57565386414 
965, 3114.61543821578 
966, 3115.49677171516 
967, 3111.59603877429 
968, 3102.26365853092 
969, 3085.88820633939 
970, 3065.91089085103 
971, 3039.79391310871 
972, 3003.98405886161 
973, 2956.82186409903 
974, 2904.91856661286 
975, 2851.907197302 
976, 2800.27072528893 
977, 2752.49679489246 
978, 2713.48517994794 
979, 2682.41276572311 
980, 2655.97385604756 
981, 2630.15066542329 
982, 2602.07312736427 
983, 2572.65818713397 
984, 2541.11201765337 
985, 2506.88817568996 
986, 2470.34078148384 
987, 2429.21470543134 
988, 2387.85999442121 
989, 2347.43515725909 
990, 2304.75996401321 
991, 2261.24406701077 
992, 2216.20226662456 
993, 2171.31745275997 
994, 2128.8887003106 
995, 2085.94850772022 
996, 2041.64708565296 
997, 1995.67648135065 
998, 1948.82018332164 
999, 1903.87853758908 
1000, 1859.76364590879 
1001, 11576.9654408847 
1002, 11579.1490550602 
1003, 11573.9377498087 
1004, 11579.3938451245 
1005, 11601.5971250843 
1006, 11635.3889889708 
1007, 11684.8502731273 
1008, 11745.4746825518 
1009, 11806.023978132 
1010, 11871.0668821745 
1011, 11939.4081336988 
1012, 12012.6737277574 
1013, 12087.1044478147 
1014, 12163.9476041245 
1015, 12239.3130675562 
1016, 12314.066978087 
1017, 12385.6818105702 
1018, 12458.9270210582 
1019, 12537.234277645 
1020, 12616.5178949198 
1021, 12704.5330816412 
1022, 12791.4795575804 
1023, 12881.1327206481 
1024, 12971.1914686425 
1025, 13060.1132622771 
1026, 13139.9873304509 
1027, 13221.0130428136 
1028, 13294.3532613961 
1029, 13362.9033858961 
1030, 13435.0764985146 
1031, 13501.990641251 
1032, 13562.4061804282 
1033, 13616.73454562 
1034, 13665.2868764833 
1035, 13710.8950657312 
1036, 13750.7616535969 
1037, 13786.0495742773 
1038, 13824.3178961944 
1039, 13860.0591902827 
1040, 13887.1140440084 
1041, 13916.5320648472 
1042, 13939.3142029913 
1043, 13952.1316415229 
1044, 13965.5592256262 
1045, 13974.9459420587 
1046, 13982.9724086504 
1047, 13994.9599592025 
1048, 14009.9372729985 
1049, 14023.3571827038 
1050, 14035.0326771154 
1051, 14047.7054155285 
1052, 14061.2275859572 
1053, 14079.0627440926 
1054, 14103.4927918001 
1055, 14129.5114279618 
1056, 14148.3678331316 
1057, 14166.8660002797 
1058, 14194.8984878548 
1059, 14234.5326610987 
1060, 14285.3780364612 
1061, 14355.437439918 
1062, 14426.5935187646 
1063, 14505.3221465125 
1064, 14584.13645711 
1065, 14675.2151288101 
1066, 14775.7828567052 
1067, 14884.1065044708 
1068, 15014.3039817544 
1069, 15159.3694716438 
1070, 15310.8025157725 
1071, 15484.1513946686 
1072, 15659.695183109 
1073, 15835.5084941514 
1074, 16027.8188948545 
1075, 16200.8839022663 
1076, 16370.4955891931 
1077, 16529.6865160736 
1078, 16668.0492135685 
1079, 16792.017724244 
1080, 16893.6467552233 
1081, 16985.2665048376 
1082, 17078.3954538647 
1083, 17164.1742919706 
1084, 17254.4848363262 
1085, 17348.2786212768 
1086, 17430.3065472013 
1087, 17510.8810022294 
1088, 17574.3753072375 
1089, 17633.5182119182 
1090, 17670.0555151204 
1091, 17688.084325445 
1092, 17695.2117548822 
1093, 17684.975961115 
1094, 17659.0900840139 
1095, 17632.8927353349 
1096, 17605.8110707308 
1097, 17575.9486398418 
1098, 17548.9083569648 
1099, 17523.3101715007 
1100, 17498.4916968725 
1101, 17472.4536729775 
1102, 17459.938959286 
1103, 17421.2098432103 
1104, 17385.5864353605 
1105, 17316.9661563224 
1106, 17222.1122796854 
1107, 17092.2130028508 
1108, 16898.8699771751 
1109, 16649.5301313676 
1110, 16301.7724760418 
1111, 15867.8952454941 
1112, 15360.065329953 
1113, 14732.9882035471 
1114, 14113.8814669178 
1115, 13394.0002399269 
1116, 12744.760155527 
1117, 12045.6565018343 
1118, 11449.8606503931 
1119, 10898.3903964726 
1120, 10390.5386882133 
1121, 9975.61172784269 
1122, 9641.16020798118 
1123, 9412.0743109492 
1124, 9265.29432276368 
1125, 9203.72151023023 
1126, 9270.74055917356 
1127, 9331.63213435109 
1128, 9471.41496497366 
1129, 9607.42929840556 
1130, 9781.66890459328 
1131, 9953.26311017195 
1132, 10120.4443393201 
1133, 10335.604937197 
1134, 10569.2344344265 
1135, 10822.6180068727 
1136, 11174.7445411352 
1137, 11540.3350017776 
1138, 11893.5885550534 
1139, 12226.9210843509 
1140, 12456.5618634668 
1141, 12634.4359704197 
1142, 12722.9143213882 
1143, 12685.3647429113 
1144, 12682.3598689773 
1145, 12529.9586958527 
1146, 12550.7695100046 
1147, 12584.7737755684 
1148, 12744.5799624459 
1149, 13022.4103342374 
1150, 13369.6089477135 
1151, 13818.459415529 
1152, 14313.2660844921 
1153, 14825.0725183805 
1154, 15413.7369127878 
1155, 15969.644984185 
1156, 16550.0591870987 
1157, 17102.9493194267 
1158, 17668.3470664896 
1159, 18192.3160061067 
1160, 18701.4629578031 
1161, 19174.5637924472 
1162, 19623.734815297 
1163, 20040.0878094365 
1164, 20428.6557538337 
1165, 20778.9045662386 
1166, 21099.0247493294 
1167, 21376.8106297705 
1168, 21615.3428861369 
1169, 21811.5977830862 
1170, 21977.2028213934 
1171, 22099.069154082 
1172, 22202.8641060733 
1173, 22268.847318997 
1174, 22323.6556914111 
1175, 22350.1453864537 
1176, 22368.9853632978 
1177, 22360.3209497028 
1178, 22357.931566608 
