Wavelength,0212202100012.asd
350, 160.577779633223 
351, 169.714624582457 
352, 178.207739734805 
353, 185.206937788701 
354, 191.694421053462 
355, 198.053252215728 
356, 204.411386508732 
357, 210.460373360867 
358, 217.781526086329 
359, 225.658961829539 
360, 233.133704953665 
361, 245.103197475099 
362, 257.063558245407 
363, 268.058748430431 
364, 281.051961501506 
365, 294.115673110264 
366, 305.59702918396 
367, 314.667603534986 
368, 322.006903378891 
369, 326.773449123977 
370, 329.331970027938 
371, 329.913768835414 
372, 325.795577229026 
373, 325.431506512137 
374, 328.282969468404 
375, 328.129748000551 
376, 327.178887019795 
377, 326.787342860551 
378, 326.686301743355 
379, 324.540325720714 
380, 320.265076293046 
381, 315.86120277618 
382, 312.217370416981 
383, 304.996282354764 
384, 300.547629751564 
385, 298.642167116093 
386, 297.178145373191 
387, 304.01306785148 
388, 312.044385709933 
389, 317.351095543978 
390, 320.791061005259 
391, 325.118570472194 
392, 328.23977224748 
393, 329.436780685855 
394, 332.802342250291 
395, 341.043578315907 
396, 356.135641848629 
397, 378.750532487753 
398, 406.603682262424 
399, 438.938487754674 
400, 473.539189247733 
401, 506.934322836521 
402, 537.187457346646 
403, 561.679228616278 
404, 579.535381790152 
405, 592.697344541068 
406, 604.451129231559 
407, 614.880437815175 
408, 624.583441560952 
409, 641.706168536408 
410, 659.621407698228 
411, 677.627008086137 
412, 699.525811686405 
413, 722.613040666814 
414, 743.651889078674 
415, 761.589974174047 
416, 779.085326376091 
417, 796.827887794216 
418, 813.423687365066 
419, 827.880250195029 
420, 843.656426725104 
421, 859.935250440229 
422, 876.977025289024 
423, 895.41952156865 
424, 911.791045384607 
425, 924.391354596786 
426, 931.137351664929 
427, 928.410213916395 
428, 925.531833901116 
429, 929.077910155749 
430, 942.191620892406 
431, 959.133933267804 
432, 982.620809581319 
433, 1017.29962502373 
434, 1066.8894397432 
435, 1115.21622671574 
436, 1151.41519213487 
437, 1175.25299971388 
438, 1202.24251473 
439, 1229.35166795563 
440, 1254.67791704319 
441, 1278.00685464806 
442, 1306.42925797191 
443, 1335.10398099194 
444, 1361.72788390587 
445, 1386.05740923534 
446, 1404.08136524823 
447, 1420.47892672609 
448, 1439.12232877331 
449, 1460.34397724048 
450, 1476.88264057205 
451, 1485.03355625118 
452, 1484.3644567789 
453, 1481.79502317972 
454, 1472.98322888193 
455, 1460.69141298932 
456, 1453.82143040784 
457, 1452.12183934686 
458, 1451.89996748682 
459, 1450.01292344579 
460, 1445.98291152876 
461, 1442.35311335776 
462, 1437.53161907782 
463, 1429.03133350782 
464, 1419.74552560862 
465, 1403.85187342939 
466, 1383.2588693612 
467, 1367.85823748278 
468, 1354.84236338779 
469, 1345.118867117 
470, 1339.4650907618 
471, 1337.3962491202 
472, 1335.35956308262 
473, 1334.23935188671 
474, 1336.19324194165 
475, 1336.22047962183 
476, 1335.16574013368 
477, 1334.78978004092 
478, 1337.23831032823 
479, 1341.21077010283 
480, 1345.48523044787 
481, 1348.14604747121 
482, 1346.12341662921 
483, 1335.05735091129 
484, 1312.99438766068 
485, 1281.27523029536 
486, 1250.72865737311 
487, 1230.68572406277 
488, 1227.40983375001 
489, 1243.7477608863 
490, 1265.68619179829 
491, 1282.55594047481 
492, 1288.6354648634 
493, 1290.83961957261 
494, 1294.39215559055 
495, 1301.49456411418 
496, 1310.93659501289 
497, 1312.59531839769 
498, 1308.23086863348 
499, 1300.60848542871 
500, 1289.06581046314 
501, 1281.14701233737 
502, 1278.31417669575 
503, 1280.46547759533 
504, 1294.80895692723 
505, 1312.06527560179 
506, 1326.85179059862 
507, 1339.2878579358 
508, 1349.42238796393 
509, 1357.01395493375 
510, 1363.21194294122 
511, 1373.80253068621 
512, 1379.77426437155 
513, 1379.41565547207 
514, 1374.81491948613 
515, 1363.46411638812 
516, 1347.34193401909 
517, 1331.9675745394 
518, 1326.77733922411 
519, 1339.71756956819 
520, 1371.6475781827 
521, 1416.28762613558 
522, 1454.74861298474 
523, 1482.45786100186 
524, 1500.36149392104 
525, 1513.48063728684 
526, 1519.86632641346 
527, 1522.84658444631 
528, 1531.0770764283 
529, 1563.93367159888 
530, 1604.78936795261 
531, 1636.94485082927 
532, 1648.11625736599 
533, 1650.9645912881 
534, 1659.28885757638 
535, 1677.99527882917 
536, 1701.81703913908 
537, 1720.24999256959 
538, 1728.37419669367 
539, 1726.99277800322 
540, 1726.72224220158 
541, 1728.64565454266 
542, 1738.26853531794 
543, 1760.90779043687 
544, 1782.80829930156 
545, 1801.92165289009 
546, 1816.78878230464 
547, 1824.40977813311 
548, 1828.50497595198 
549, 1834.58931189333 
550, 1845.89753479131 
551, 1854.72634205242 
552, 1861.10527656861 
553, 1866.11792411915 
554, 1871.38739932783 
555, 1875.74913510145 
556, 1874.06450438515 
557, 1863.34123339789 
558, 1845.31431394509 
559, 1830.48421183101 
560, 1825.18114366848 
561, 1831.27661551591 
562, 1839.84524760748 
563, 1843.82105479489 
564, 1840.15292507092 
565, 1830.38878234786 
566, 1818.1733517053 
567, 1806.18754057796 
568, 1795.54871572115 
569, 1784.32125995171 
570, 1768.79545636167 
571, 1754.20215283631 
572, 1750.38670968097 
573, 1753.57376740911 
574, 1754.34576781396 
575, 1746.65553804306 
576, 1730.76046767863 
577, 1717.39881044622 
578, 1710.96858997068 
579, 1712.58656187903 
580, 1720.31300111761 
581, 1737.18560357511 
582, 1758.37024508682 
583, 1772.2130231129 
584, 1782.21957811069 
585, 1782.55524296831 
586, 1770.88309905022 
587, 1756.28432506377 
588, 1739.90134718094 
589, 1717.35625414831 
590, 1686.88716254243 
591, 1682.13933238291 
592, 1693.64801910324 
593, 1706.32908904722 
594, 1703.77187950169 
595, 1693.36654958426 
596, 1679.72769208004 
597, 1666.06966664543 
598, 1652.28082647888 
599, 1634.67305904108 
600, 1615.68965831374 
601, 1601.39904716523 
602, 1587.83420602199 
603, 1580.27950346665 
604, 1580.25668956994 
605, 1581.03899158233 
606, 1578.04812026129 
607, 1569.71087559218 
608, 1557.19719417936 
609, 1546.11473325669 
610, 1536.70389069174 
611, 1528.04453980967 
612, 1518.53663773333 
613, 1511.15177137102 
614, 1501.9051339017 
615, 1489.71983790969 
616, 1484.01351302049 
617, 1478.77550082927 
618, 1478.10051493979 
619, 1487.58194071987 
620, 1492.31321889845 
621, 1492.45375302536 
622, 1487.31420977686 
623, 1473.49395510531 
624, 1458.20640756427 
625, 1445.11242573443 
626, 1435.28502513693 
627, 1425.31250627811 
628, 1415.37313355351 
629, 1406.15716047206 
630, 1399.3138937211 
631, 1401.47956716766 
632, 1406.78961054362 
633, 1411.55533737669 
634, 1418.59430942761 
635, 1424.11318917369 
636, 1427.8330613862 
637, 1430.60492457557 
638, 1433.35511418091 
639, 1430.88631043087 
640, 1422.39816003021 
641, 1411.3598334884 
642, 1404.01213355602 
643, 1400.20401772888 
644, 1397.65243732396 
645, 1392.73102337033 
646, 1383.87426121145 
647, 1372.76688145126 
648, 1362.52834214203 
649, 1354.7426554772 
650, 1348.17370528833 
651, 1344.66765868432 
652, 1348.6018430326 
653, 1345.11546920936 
654, 1328.79038508708 
655, 1299.67839575938 
656, 1262.2803047569 
657, 1237.59750438569 
658, 1242.80338559932 
659, 1283.29619990149 
660, 1314.48536158411 
661, 1328.273859013 
662, 1328.99139074017 
663, 1331.26040033066 
664, 1330.22125185443 
665, 1328.08277675007 
666, 1327.38824176758 
667, 1327.85020954557 
668, 1327.71443689667 
669, 1326.85539207604 
670, 1325.89722788057 
671, 1323.40166935622 
672, 1320.04891399111 
673, 1317.94559560544 
674, 1320.75898644925 
675, 1321.10161029296 
676, 1321.77554432881 
677, 1325.50450083371 
678, 1325.39426195929 
679, 1324.87576026648 
680, 1324.89096718747 
681, 1324.7301762821 
682, 1324.02592614182 
683, 1322.00328858126 
684, 1312.46037849413 
685, 1281.8274588348 
686, 1227.79749546621 
687, 1153.67835896378 
688, 1077.95832339064 
689, 1057.36824651536 
690, 1086.82413107507 
691, 1142.53960972987 
692, 1191.02196465656 
693, 1234.96368128658 
694, 1266.01300374283 
695, 1283.06217054968 
696, 1296.33870174824 
697, 1305.62002234553 
698, 1310.67855176713 
699, 1311.48358384659 
700, 1309.54316101739 
701, 1306.08290358787 
702, 1305.47550733652 
703, 1312.90547909134 
704, 1323.78652467302 
705, 1336.24407748035 
706, 1347.21112666402 
707, 1351.59855046914 
708, 1355.57287473117 
709, 1360.01394028971 
710, 1364.26825433619 
711, 1367.74463296273 
712, 1370.21227728411 
713, 1371.48626664587 
714, 1370.88893889365 
715, 1365.0851871284 
716, 1349.43987286442 
717, 1321.84257888065 
718, 1283.62495386323 
719, 1251.3408107819 
720, 1241.73347141668 
721, 1260.93735733391 
722, 1291.64186841478 
723, 1311.34963833437 
724, 1312.60289305201 
725, 1301.13025602422 
726, 1302.79899035242 
727, 1309.45458397294 
728, 1313.71656134016 
729, 1313.18471070046 
730, 1321.68230537612 
731, 1337.65242346381 
732, 1356.74533283968 
733, 1377.06640093874 
734, 1394.06741477354 
735, 1405.04389419296 
736, 1409.10066048931 
737, 1408.18326116676 
738, 1405.95578413297 
739, 1403.28363569778 
740, 1398.89908503709 
741, 1397.4538904372 
742, 1399.41275666408 
743, 1403.51544033298 
744, 1406.88821782467 
745, 1411.85168058486 
746, 1415.79260432278 
747, 1415.82111490603 
748, 1413.39851674809 
749, 1409.47000013945 
750, 1403.62386789647 
751, 1395.8596051775 
752, 1395.79479284133 
753, 1397.15035320759 
754, 1396.48615908912 
755, 1395.8089551799 
756, 1389.44660751427 
757, 1361.07909723704 
758, 1282.440329278 
759, 1100.10753216295 
760, 837.128611128148 
761, 589.980031624673 
762, 467.994581532115 
763, 483.014897391881 
764, 565.218207113049 
765, 683.581303448283 
766, 840.423631726375 
767, 1005.86232623488 
768, 1144.92985474211 
769, 1238.44320752565 
770, 1290.38645023961 
771, 1315.65984158327 
772, 1325.19153143198 
773, 1327.19460792452 
774, 1326.16532383429 
775, 1324.79495374038 
776, 1322.69720589309 
777, 1318.28098204198 
778, 1313.01811000711 
779, 1307.9643389553 
780, 1303.10863207184 
781, 1297.62954008012 
782, 1292.59016631374 
783, 1285.82542620402 
784, 1278.10757493997 
785, 1275.27658394856 
786, 1266.7330951389 
787, 1255.91826141741 
788, 1247.12148024521 
789, 1236.40945555346 
790, 1223.26179257955 
791, 1208.94105323037 
792, 1195.14210350906 
793, 1180.28844154168 
794, 1169.7454716248 
795, 1164.1990944451 
796, 1160.40139956199 
797, 1157.84623706572 
798, 1153.87237595095 
799, 1146.73711956008 
800, 1136.28515884028 
801, 1124.69693383462 
802, 1114.88447508946 
803, 1107.50608465756 
804, 1098.02533401713 
805, 1089.89052480092 
806, 1082.95237558751 
807, 1075.38615932166 
808, 1063.81348775773 
809, 1052.79756658617 
810, 1041.6384338659 
811, 1026.88855059607 
812, 1009.28668567275 
813, 986.861692660361 
814, 959.684703029235 
815, 930.191365140259 
816, 902.478452593375 
817, 879.606907440046 
818, 864.928617803611 
819, 862.312598530529 
820, 857.878440034045 
821, 851.60994213138 
822, 845.806258198792 
823, 839.23843752627 
824, 835.252273163416 
825, 836.208362452967 
826, 840.571839021996 
827, 835.555453622114 
828, 826.432061360785 
829, 815.978734717121 
830, 805.831653780948 
831, 798.996934098437 
832, 794.691313301641 
833, 791.195080826924 
834, 786.777877157143 
835, 783.981419869991 
836, 782.589272829819 
837, 780.917591198449 
838, 776.308307664433 
839, 771.080856039184 
840, 764.1541911739 
841, 755.559931225906 
842, 748.078335863907 
843, 739.894324832973 
844, 731.603593181729 
845, 723.659811504411 
846, 714.760807460502 
847, 705.699690511457 
848, 694.522280449302 
849, 680.186241948999 
850, 667.796004389782 
851, 654.026059196466 
852, 639.856019237062 
853, 628.063985241642 
854, 619.459426054516 
855, 611.742956426191 
856, 607.805435280198 
857, 612.18620743607 
858, 618.501630269385 
859, 620.199702706571 
860, 616.183033545084 
861, 610.026163598524 
862, 601.432704337817 
863, 590.882511304781 
864, 579.237176226498 
865, 567.612624053925 
866, 555.549284072426 
867, 545.349313922342 
868, 539.890350336881 
869, 541.73683746085 
870, 542.581335943595 
871, 540.889184978083 
872, 536.672647402666 
873, 529.704902279482 
874, 524.588782302743 
875, 519.17852278158 
876, 511.766752906256 
877, 505.753757838572 
878, 500.86005496127 
879, 495.255550825306 
880, 488.056307812645 
881, 482.334808826277 
882, 478.153254577161 
883, 473.255757958994 
884, 466.3669369755 
885, 462.636475372096 
886, 456.243402500811 
887, 448.691516536115 
888, 443.213798107765 
889, 437.053335744676 
890, 430.300133191106 
891, 423.200450145916 
892, 415.883471219322 
893, 407.824237321187 
894, 397.292472140867 
895, 384.630674920173 
896, 371.439914400858 
897, 358.905461300186 
898, 346.542140858715 
899, 336.054763427808 
900, 329.757516765207 
901, 325.963001586609 
902, 324.869582801271 
903, 324.153680506696 
904, 320.981301691883 
905, 319.321146898514 
906, 316.056632510805 
907, 310.166648433132 
908, 302.706820892107 
909, 295.063826470099 
910, 288.445840017852 
911, 283.527718483047 
912, 280.345912964007 
913, 278.215177976972 
914, 274.631725912135 
915, 270.320703720384 
916, 267.992631143734 
917, 266.527561071292 
918, 265.543866107616 
919, 264.364650349872 
920, 262.378668063055 
921, 260.723379047051 
922, 257.643986907209 
923, 253.58249745734 
924, 249.987298021988 
925, 243.683698331514 
926, 236.81515902719 
927, 228.871725990953 
928, 217.840610734976 
929, 205.174993960901 
930, 191.429364933379 
931, 177.266580497737 
932, 163.786674708382 
933, 154.145753244881 
934, 142.953193958085 
935, 133.959175242358 
936, 133.214485924068 
937, 130.923086727217 
938, 131.767348815754 
939, 133.722220080402 
940, 133.002500368986 
941, 134.727966748219 
942, 134.095858744227 
943, 131.282440007175 
944, 128.558472005481 
945, 126.249240993311 
946, 123.842457928744 
947, 122.779637349526 
948, 123.628742421106 
949, 122.126542379741 
950, 121.556371565612 
951, 121.627751386619 
952, 121.265937473619 
953, 120.520106501834 
954, 118.765916987167 
955, 117.551124709949 
956, 117.720867924044 
957, 117.616295207567 
958, 118.043734492345 
959, 118.166966526276 
960, 118.16075263016 
961, 119.880623844188 
962, 117.625537064127 
963, 116.640359308159 
964, 118.403962600847 
965, 117.99197121847 
966, 117.776774284559 
967, 117.840660321038 
968, 118.03304428514 
969, 118.150682000851 
970, 117.536422382244 
971, 116.188523808228 
972, 114.113264196419 
973, 111.635823836001 
974, 110.766613697782 
975, 109.091043135054 
976, 106.540811883595 
977, 104.364439601568 
978, 103.479670510146 
979, 102.690091014309 
980, 101.765369210688 
981, 100.665990875213 
982, 98.9009640877902 
983, 97.577196231202 
984, 96.3279644776177 
985, 94.9240187911493 
986, 93.9197024585245 
987, 92.3192923736869 
988, 90.6532276781414 
989, 89.2751161943965 
990, 87.9163027504725 
991, 85.3966483693936 
992, 84.1863522891565 
993, 83.9504601176976 
994, 82.5459360644659 
995, 80.6815484393664 
996, 78.6727100864728 
997, 77.1063003537869 
998, 75.9568904368652 
999, 73.0857052192578 
1000, 71.9484523194557 
1001, 415.981219592211 
1002, 414.863984713171 
1003, 426.424260214848 
1004, 435.867547188753 
1005, 438.297935377573 
1006, 446.987393786669 
1007, 445.396493953823 
1008, 438.187075745952 
1009, 438.822616441 
1010, 446.23331943289 
1011, 449.823066853488 
1012, 454.961411478576 
1013, 459.420176524603 
1014, 461.199335491687 
1015, 457.740043160721 
1016, 450.667363051057 
1017, 451.911972804239 
1018, 455.186836324076 
1019, 461.276046484784 
1020, 474.845827959775 
1021, 479.898058966915 
1022, 482.773561657734 
1023, 483.506167747468 
1024, 481.676206809327 
1025, 476.491685799769 
1026, 478.87669021496 
1027, 481.984612093706 
1028, 492.656838377196 
1029, 503.407095586739 
1030, 506.511287894174 
1031, 509.730648039392 
1032, 506.611053930011 
1033, 505.96776798992 
1034, 506.335702719395 
1035, 507.295319499894 
1036, 510.580130592769 
1037, 516.074161456756 
1038, 516.630265112992 
1039, 522.112093713983 
1040, 524.909903723077 
1041, 524.053476997495 
1042, 523.612990593511 
1043, 521.676369545493 
1044, 523.735874008909 
1045, 526.739108237419 
1046, 531.480249950376 
1047, 535.584913999761 
1048, 540.159740648604 
1049, 542.968879025749 
1050, 546.132919572917 
1051, 542.581616202801 
1052, 537.192689302243 
1053, 535.307897488194 
1054, 525.461941963077 
1055, 522.284333029788 
1056, 526.500604387077 
1057, 523.939014886312 
1058, 529.191545449841 
1059, 536.211375243951 
1060, 541.073529598363 
1061, 545.839715005545 
1062, 548.127321231123 
1063, 548.570200645914 
1064, 549.269505598985 
1065, 547.690726086217 
1066, 550.687317776812 
1067, 555.701088151896 
1068, 562.010619704295 
1069, 573.543299387896 
1070, 581.688134931975 
1071, 589.083384416467 
1072, 594.493522149843 
1073, 599.064941428991 
1074, 597.944730027474 
1075, 604.40514384415 
1076, 614.706040066759 
1077, 623.722877083521 
1078, 631.15050980793 
1079, 634.152874381594 
1080, 635.637661708515 
1081, 639.925114717205 
1082, 650.967790479359 
1083, 655.402688939485 
1084, 656.046573756103 
1085, 663.981400113209 
1086, 665.116378155817 
1087, 658.669515007452 
1088, 660.074534784996 
1089, 663.351357591556 
1090, 663.12030557546 
1091, 661.752954910627 
1092, 669.721698576263 
1093, 672.513386240875 
1094, 668.167029609671 
1095, 669.090185044592 
1096, 670.832732959564 
1097, 665.38079363743 
1098, 659.389496834194 
1099, 658.692322628805 
1100, 660.340201932403 
1101, 659.99606508777 
1102, 665.818330520537 
1103, 665.091234180584 
1104, 658.53399065872 
1105, 652.869089247391 
1106, 650.411507936305 
1107, 651.135673636887 
1108, 653.988757015273 
1109, 652.591649915343 
1110, 645.036492575689 
1111, 625.39001651886 
1112, 603.594505522714 
1113, 573.188207935801 
1114, 546.024132670408 
1115, 511.823700151622 
1116, 487.771360708679 
1117, 466.239715059987 
1118, 445.517987258287 
1119, 429.019901779682 
1120, 415.449730662435 
1121, 396.413768626126 
1122, 387.573858392645 
1123, 381.543488369336 
1124, 372.634592615608 
1125, 366.283347923915 
1126, 361.113172776376 
1127, 360.828681722196 
1128, 361.806146744386 
1129, 365.729803067245 
1130, 377.831353449048 
1131, 385.260011858706 
1132, 390.21126177001 
1133, 399.530852836507 
1134, 410.880398371201 
1135, 420.43139826295 
1136, 437.770265401936 
1137, 448.611949007692 
1138, 460.760184264773 
1139, 474.939377319192 
1140, 483.736007929145 
1141, 491.200990482428 
1142, 495.577784532132 
1143, 496.383334323942 
1144, 494.974081685919 
1145, 485.058509127848 
1146, 484.216329892503 
1147, 481.732060934237 
1148, 486.271513126562 
1149, 498.762605231512 
1150, 513.631376361991 
1151, 528.924642597437 
1152, 546.905404758168 
1153, 565.86256463679 
1154, 586.884572929541 
1155, 607.886869189695 
1156, 630.061803252205 
1157, 652.405774321245 
1158, 675.771569364454 
1159, 698.49871270615 
1160, 726.276875503169 
1161, 745.48587453367 
1162, 760.453928326682 
1163, 773.537543131817 
1164, 778.65595180616 
1165, 787.345194023174 
1166, 796.146894997484 
1167, 803.243048930212 
1168, 813.205947376671 
1169, 824.950801801601 
1170, 833.685739757347 
1171, 845.123002536612 
1172, 851.513708812778 
1173, 853.758337563319 
1174, 856.228771704767 
1175, 854.363454231691 
1176, 856.183760941485 
1177, 860.958239611502 
