Wavelength,0212202100093.asd
350, 133.187133376292 
351, 139.14551338959 
352, 146.071093774361 
353, 152.282105496712 
354, 157.073308999512 
355, 161.744654479369 
356, 167.402140595202 
357, 172.726701813232 
358, 178.333589314996 
359, 184.922604690641 
360, 192.804998899688 
361, 199.626378539193 
362, 208.388976325851 
363, 219.633435792611 
364, 231.08716040434 
365, 241.326061850114 
366, 250.970113359385 
367, 260.330830202665 
368, 268.435292452841 
369, 273.205078630084 
370, 274.932936664289 
371, 274.863875763137 
372, 273.828788535502 
373, 273.564578883114 
374, 274.501186386855 
375, 275.897651185083 
376, 275.654324370455 
377, 275.872361640628 
378, 276.374454723167 
379, 273.33616241092 
380, 272.185668749713 
381, 269.843255510696 
382, 263.936036791933 
383, 260.134274398722 
384, 255.481560751836 
385, 252.412884109602 
386, 255.023612141035 
387, 261.474517283219 
388, 268.017595498734 
389, 273.215213729523 
390, 278.246453320373 
391, 282.546150945406 
392, 286.740996458146 
393, 291.242669054339 
394, 294.899914496982 
395, 303.531251411996 
396, 317.959696702117 
397, 337.640192796806 
398, 366.371582389074 
399, 399.493138268385 
400, 433.603711619228 
401, 466.886905168784 
402, 498.443645286889 
403, 524.54167196709 
404, 543.455729888664 
405, 557.550315832789 
406, 569.666744116028 
407, 580.077236453518 
408, 589.518315366402 
409, 605.086514807514 
410, 621.202647699459 
411, 637.109164511631 
412, 655.649857573129 
413, 673.010855661332 
414, 690.859576940316 
415, 709.116036363021 
416, 723.311073493063 
417, 736.648964396741 
418, 750.437950276986 
419, 764.856567679589 
420, 778.049417502465 
421, 790.260572580676 
422, 803.258019902217 
423, 819.302352048097 
424, 835.070400350568 
425, 847.036153971384 
426, 853.0137332804 
427, 852.812034862522 
428, 849.255558069857 
429, 849.759016262697 
430, 860.244797257 
431, 875.760284506445 
432, 895.366452786684 
433, 924.66139803991 
434, 971.635671417322 
435, 1020.9867368404 
436, 1058.47195055703 
437, 1081.16781637951 
438, 1103.97574828281 
439, 1129.49123922625 
440, 1155.0863418966 
441, 1178.22920744341 
442, 1206.58315532454 
443, 1236.72835596901 
444, 1265.09959428625 
445, 1288.68299056531 
446, 1309.27297752086 
447, 1327.58875074708 
448, 1345.39338412748 
449, 1366.9092434929 
450, 1387.24817583776 
451, 1400.0200080518 
452, 1401.30316544815 
453, 1400.07749650514 
454, 1395.17989873272 
455, 1388.44350576814 
456, 1384.54712775679 
457, 1386.36643057903 
458, 1390.95932945044 
459, 1394.17328822308 
460, 1391.3464594364 
461, 1389.08353691321 
462, 1388.26799381514 
463, 1386.78617855578 
464, 1379.97484768346 
465, 1368.94828913358 
466, 1355.85442017585 
467, 1343.45317105203 
468, 1333.67087133355 
469, 1327.07896864152 
470, 1323.99144164981 
471, 1325.44761934122 
472, 1329.32645241236 
473, 1334.97428771506 
474, 1342.07845397152 
475, 1347.66608044631 
476, 1353.91998191809 
477, 1361.79344461339 
478, 1370.13909066261 
479, 1382.91621474938 
480, 1398.83401516197 
481, 1414.4260699776 
482, 1425.25614517324 
483, 1426.17011662849 
484, 1415.95988424336 
485, 1397.18169558879 
486, 1376.70231198035 
487, 1366.15221388362 
488, 1374.09691152521 
489, 1404.38985217659 
490, 1443.62475567667 
491, 1478.38802973933 
492, 1500.0385418449 
493, 1516.60679109896 
494, 1533.28225780319 
495, 1554.57688296247 
496, 1582.68043932034 
497, 1599.89725994859 
498, 1606.79859915008 
499, 1607.86499657376 
500, 1607.97025309914 
501, 1609.1687616841 
502, 1615.81563274617 
503, 1632.12964091829 
504, 1658.01425411073 
505, 1691.63721794086 
506, 1727.63087681031 
507, 1757.45256981553 
508, 1783.84902833897 
509, 1809.6246003418 
510, 1837.09856302688 
511, 1867.38617088028 
512, 1894.32294318185 
513, 1915.32425901524 
514, 1929.63066937997 
515, 1933.04416452711 
516, 1931.26323326374 
517, 1931.04836455034 
518, 1938.18295682923 
519, 1975.19838589417 
520, 2042.37938996253 
521, 2127.26520458257 
522, 2204.28220026892 
523, 2268.15125239424 
524, 2317.9237477682 
525, 2356.12317598097 
526, 2382.67192265987 
527, 2401.05816841637 
528, 2424.30987469527 
529, 2486.03814927511 
530, 2558.89374678246 
531, 2618.33181845941 
532, 2646.32453682157 
533, 2656.67354624641 
534, 2668.30295227632 
535, 2692.48338814691 
536, 2730.57767914862 
537, 2755.09590468846 
538, 2762.6751683834 
539, 2758.24831488081 
540, 2749.89809669287 
541, 2744.91996466615 
542, 2750.90542860641 
543, 2772.73045504892 
544, 2797.83676015993 
545, 2819.68937892956 
546, 2833.3596283458 
547, 2834.75720025789 
548, 2832.91322849884 
549, 2831.80095850055 
550, 2832.86401412238 
551, 2834.8437727725 
552, 2836.20440079689 
553, 2834.98088504049 
554, 2829.31199699923 
555, 2825.07298356254 
556, 2811.14791815871 
557, 2781.37846469186 
558, 2745.62671645156 
559, 2711.36315598467 
560, 2686.69113314123 
561, 2677.07447623956 
562, 2676.59708271198 
563, 2671.634468768 
564, 2654.67599293702 
565, 2626.39287396329 
566, 2595.00926114995 
567, 2564.40905534638 
568, 2536.08835584084 
569, 2509.11708331031 
570, 2477.44788480056 
571, 2448.11594623111 
572, 2434.69681867327 
573, 2428.69527609384 
574, 2421.40090391942 
575, 2406.8561324441 
576, 2383.06902186277 
577, 2362.49557817734 
578, 2351.71091255189 
579, 2353.08549607637 
580, 2361.13117329075 
581, 2379.56924952987 
582, 2403.85598298855 
583, 2421.9357292635 
584, 2434.1555140051 
585, 2433.16831950671 
586, 2416.18501898921 
587, 2393.18364378396 
588, 2365.62250509689 
589, 2329.50428882152 
590, 2283.81142410955 
591, 2263.65253620355 
592, 2268.56842832604 
593, 2282.68841922252 
594, 2275.81381014405 
595, 2256.35348948325 
596, 2231.73663803019 
597, 2207.55332737827 
598, 2181.18534297619 
599, 2151.57948365349 
600, 2119.72069720259 
601, 2088.55469389402 
602, 2064.1679906026 
603, 2047.9693809015 
604, 2038.74888765884 
605, 2033.01533692428 
606, 2021.47765138921 
607, 2003.49923987654 
608, 1982.62816053051 
609, 1963.26782936458 
610, 1946.70948834197 
611, 1932.72891442303 
612, 1919.79818248033 
613, 1906.94968983182 
614, 1893.55869309289 
615, 1880.4404801287 
616, 1871.2529428643 
617, 1865.93510949042 
618, 1867.64768280093 
619, 1878.95226861558 
620, 1891.29056312093 
621, 1896.80128569705 
622, 1892.82045368851 
623, 1882.97719907639 
624, 1869.20335012383 
625, 1856.08879342568 
626, 1846.87423599309 
627, 1839.41274386937 
628, 1830.24881913048 
629, 1821.4451633396 
630, 1818.63814484926 
631, 1824.51081006413 
632, 1834.43466509966 
633, 1845.41820376231 
634, 1859.15338927481 
635, 1870.03262037414 
636, 1878.16930025377 
637, 1884.89369795775 
638, 1888.07814742844 
639, 1887.41287366075 
640, 1881.78029991249 
641, 1870.16930975126 
642, 1861.82964127479 
643, 1857.58898991918 
644, 1855.20141617428 
645, 1849.76632098896 
646, 1840.98495530442 
647, 1828.47348497547 
648, 1813.47520565128 
649, 1803.47868986556 
650, 1796.33372686694 
651, 1792.8288207519 
652, 1796.68604425995 
653, 1796.51643715847 
654, 1779.05730723609 
655, 1741.15191794403 
656, 1701.59489284105 
657, 1674.86300059797 
658, 1678.96703901571 
659, 1723.96848724756 
660, 1773.3190499524 
661, 1803.64778198573 
662, 1812.96305767765 
663, 1822.79723778694 
664, 1829.11329557148 
665, 1834.29491183824 
666, 1841.33829623009 
667, 1852.34144556337 
668, 1864.19493171837 
669, 1875.2338419739 
670, 1884.97209179517 
671, 1894.79859943318 
672, 1905.4635878231 
673, 1919.39497693445 
674, 1941.30981568744 
675, 1963.86628343997 
676, 1986.56752649271 
677, 2010.94292513217 
678, 2038.72052493591 
679, 2067.89897264701 
680, 2097.59511757112 
681, 2127.79251506852 
682, 2160.04865619013 
683, 2191.36790102459 
684, 2210.69426777473 
685, 2196.84803026884 
686, 2144.82912505776 
687, 2060.29978506378 
688, 1972.16869882387 
689, 1962.24906372999 
690, 2051.27907364604 
691, 2203.87487451311 
692, 2351.3671045351 
693, 2494.75742624483 
694, 2620.02085355669 
695, 2724.11674206505 
696, 2820.1298882356 
697, 2917.55843402672 
698, 3010.29722436524 
699, 3090.67399803675 
700, 3162.42858563022 
701, 3237.35268736076 
702, 3322.4709006888 
703, 3421.01645952916 
704, 3536.06106678182 
705, 3660.89220067292 
706, 3784.68390072633 
707, 3892.88564457415 
708, 4004.02875390795 
709, 4118.16553999855 
710, 4232.84925413112 
711, 4354.95534711504 
712, 4477.06812029656 
713, 4597.47868022562 
714, 4715.38159880182 
715, 4815.26397161071 
716, 4877.07673959693 
717, 4890.7124116564 
718, 4859.63950944163 
719, 4852.8821539315 
720, 4933.73336936392 
721, 5129.76878783953 
722, 5398.99504690395 
723, 5628.55465240491 
724, 5778.8994001658 
725, 5869.65997415775 
726, 5995.93463771557 
727, 6148.08385231027 
728, 6306.51824896713 
729, 6453.75226120967 
730, 6629.08476078155 
731, 6841.12003527753 
732, 7085.7360832661 
733, 7351.08527970242 
734, 7603.25730797812 
735, 7818.58652835884 
736, 7986.37698468028 
737, 8124.39739818628 
738, 8254.4168421678 
739, 8381.59340329442 
740, 8498.0616386806 
741, 8623.71865219308 
742, 8767.20907168993 
743, 8929.61021684563 
744, 9103.88095812537 
745, 9273.72728883482 
746, 9435.39507397371 
747, 9590.23678685606 
748, 9740.97119792501 
749, 9876.12703323462 
750, 10000.8648992963 
751, 10131.225080828 
752, 10278.1710688281 
753, 10438.5368437631 
754, 10601.0872918776 
755, 10746.7049594822 
756, 10845.0922725249 
757, 10754.2956237331 
758, 10247.9299977577 
759, 8946.38286301528 
760, 6947.261874929 
761, 4958.80985035897 
762, 3848.57134960752 
763, 3886.53302750283 
764, 4554.11738597794 
765, 5590.39007780981 
766, 6967.57260140578 
767, 8478.99222033617 
768, 9812.90489934161 
769, 10773.0063815867 
770, 11347.523166501 
771, 11666.8903000922 
772, 11831.2403163323 
773, 11918.7535641885 
774, 11972.6506594499 
775, 11999.7748137846 
776, 12014.6919596284 
777, 12028.2779080226 
778, 12025.7665593968 
779, 12009.0273685977 
780, 11987.8908086898 
781, 11975.7650807792 
782, 11959.5504067178 
783, 11930.2480620464 
784, 11888.0690755108 
785, 11845.8350432088 
786, 11800.9071859288 
787, 11741.9208709325 
788, 11660.2296107395 
789, 11560.7810396303 
790, 11449.1121148543 
791, 11330.4366886614 
792, 11210.8529051402 
793, 11098.7525219664 
794, 11010.0079363992 
795, 10954.7023394168 
796, 10933.4839888956 
797, 10919.3010762164 
798, 10885.5090464337 
799, 10820.180482701 
800, 10730.3442379028 
801, 10626.4313502659 
802, 10529.5621040126 
803, 10449.7389124624 
804, 10368.4428542443 
805, 10299.4926672087 
806, 10235.4813873697 
807, 10161.8584505495 
808, 10067.818405269 
809, 9953.29096466802 
810, 9823.90713778243 
811, 9684.19693693643 
812, 9516.69824391465 
813, 9295.02347061903 
814, 9015.93672128087 
815, 8703.124753681 
816, 8411.22929338862 
817, 8179.72164559423 
818, 8036.24751428455 
819, 7995.35148546095 
820, 7986.89555295394 
821, 7961.8092466078 
822, 7900.22895186715 
823, 7827.27499494231 
824, 7780.63206388021 
825, 7788.65108615738 
826, 7841.14571668163 
827, 7825.57266278645 
828, 7742.50966637437 
829, 7629.22543372086 
830, 7538.03961064047 
831, 7480.95153746522 
832, 7438.3666628022 
833, 7402.91604722053 
834, 7379.31098131837 
835, 7367.82256953667 
836, 7362.33596010348 
837, 7351.26498640311 
838, 7319.20896079123 
839, 7267.68422230468 
840, 7204.84285610351 
841, 7136.95779711937 
842, 7064.19444570665 
843, 6987.23805267073 
844, 6912.10995669698 
845, 6842.16302818369 
846, 6773.35535253269 
847, 6686.07157611163 
848, 6579.41240287578 
849, 6460.78106785146 
850, 6339.60056196254 
851, 6199.92059529191 
852, 6056.44916106392 
853, 5935.85789299139 
854, 5844.97958416795 
855, 5773.42767716392 
856, 5742.28139246323 
857, 5780.36621393201 
858, 5842.67395344621 
859, 5861.85389931025 
860, 5824.07200408481 
861, 5764.29612463151 
862, 5693.59288532629 
863, 5600.94438443599 
864, 5486.65353825255 
865, 5367.52791994438 
866, 5255.57904958637 
867, 5161.25365543671 
868, 5100.57484600805 
869, 5095.7620792657 
870, 5112.49803285786 
871, 5111.5829534648 
872, 5074.45636478849 
873, 5019.47776277623 
874, 4963.04408498143 
875, 4904.90408821432 
876, 4843.62270407466 
877, 4787.06634500597 
878, 4731.40943695515 
879, 4676.01516070176 
880, 4620.75775491072 
881, 4564.47855457846 
882, 4507.92360789913 
883, 4453.75141717743 
884, 4403.83083854025 
885, 4356.28816982105 
886, 4302.15734993016 
887, 4243.53518497849 
888, 4186.44355809508 
889, 4131.61841801867 
890, 4076.38622819085 
891, 4013.948483621 
892, 3936.63067952384 
893, 3841.50806171342 
894, 3731.25336136671 
895, 3608.15426514313 
896, 3475.73573140742 
897, 3342.44047691664 
898, 3216.89570640196 
899, 3112.69705937052 
900, 3042.29613351225 
901, 3000.56738433964 
902, 2983.72394044874 
903, 2979.85650902582 
904, 2973.07581447036 
905, 2955.90598500186 
906, 2926.87347173039 
907, 2878.0547005951 
908, 2802.65553063792 
909, 2722.95382811608 
910, 2657.71166812616 
911, 2610.67304514349 
912, 2574.39134731853 
913, 2547.79402346419 
914, 2522.64430629142 
915, 2496.17943975775 
916, 2471.38049794511 
917, 2456.00276046402 
918, 2444.74834703627 
919, 2434.3351710109 
920, 2423.55110493237 
921, 2408.92537094064 
922, 2390.23346696919 
923, 2362.32529683218 
924, 2317.99490438374 
925, 2259.06880526497 
926, 2188.09393151963 
927, 2104.25195007437 
928, 2004.42237999348 
929, 1887.09160078049 
930, 1751.02224713352 
931, 1605.10901958203 
932, 1464.62226965318 
933, 1340.60316573692 
934, 1240.79642616663 
935, 1172.02468378542 
936, 1137.52067279741 
937, 1131.66397392297 
938, 1140.53872953997 
939, 1155.36671049733 
940, 1170.98619619422 
941, 1182.55839599535 
942, 1186.06430254086 
943, 1177.09792549435 
944, 1154.40493952276 
945, 1124.73280680715 
946, 1100.19936688653 
947, 1085.66780436648 
948, 1080.02907937423 
949, 1076.65078608965 
950, 1075.11523650294 
951, 1073.40604147265 
952, 1070.06241935705 
953, 1065.61579880463 
954, 1060.98475378841 
955, 1056.65832586924 
956, 1053.24006272934 
957, 1051.75217346857 
958, 1051.58947906753 
959, 1052.04160573756 
960, 1053.64729704736 
961, 1058.44127724806 
962, 1061.00226559232 
963, 1063.57435507203 
964, 1068.20466636067 
965, 1074.44127438062 
966, 1078.86187104843 
967, 1079.86973046224 
968, 1077.89973352633 
969, 1074.69749766906 
970, 1070.13504169285 
971, 1061.46498016835 
972, 1049.1967159085 
973, 1035.27086897584 
974, 1015.98907147053 
975, 996.851572552152 
976, 978.155366898239 
977, 959.351625789176 
978, 947.325836309652 
979, 937.67779561998 
980, 928.448647992476 
981, 918.812013946979 
982, 908.322122571882 
983, 900.99762611387 
984, 892.450347225211 
985, 879.945956269125 
986, 866.912332349715 
987, 852.762476021811 
988, 838.845615902626 
989, 824.949515849046 
990, 809.279269293525 
991, 793.349572406646 
992, 776.581770983097 
993, 759.897213681408 
994, 744.596181746196 
995, 728.160832137794 
996, 711.546251140309 
997, 695.078391086284 
998, 678.828893799469 
999, 663.204171250247 
1000, 648.391853176554 
1001, 4142.39850920644 
1002, 4133.17015089226 
1003, 4127.22456010605 
1004, 4128.53053075856 
1005, 4125.78759946104 
1006, 4129.46734701652 
1007, 4145.71926520819 
1008, 4163.8291448376 
1009, 4183.60462850804 
1010, 4214.18337898274 
1011, 4237.6137486283 
1012, 4256.29601781042 
1013, 4279.61577898527 
1014, 4308.5714043939 
1015, 4324.69797719358 
1016, 4344.36155452582 
1017, 4366.93826891906 
1018, 4381.4406839068 
1019, 4404.51448765466 
1020, 4433.42065656012 
1021, 4454.29705116605 
1022, 4479.6061866118 
1023, 4505.77904385384 
1024, 4536.70894402676 
1025, 4566.99446238358 
1026, 4601.32331359919 
1027, 4631.29770596333 
1028, 4650.37251054623 
1029, 4670.00523443234 
1030, 4692.74090862498 
1031, 4708.78211425467 
1032, 4725.80017204378 
1033, 4744.3367838841 
1034, 4755.90635961123 
1035, 4769.01142968999 
1036, 4784.38058813342 
1037, 4798.66294152944 
1038, 4806.00405604373 
1039, 4812.18852028127 
1040, 4816.33590792794 
1041, 4821.06436733063 
1042, 4825.04772818514 
1043, 4829.18662881508 
1044, 4837.48086383325 
1045, 4842.6171892142 
1046, 4841.08817939398 
1047, 4842.10194623103 
1048, 4843.01145016652 
1049, 4839.10855171945 
1050, 4838.29186252116 
1051, 4852.91666830487 
1052, 4862.26377917026 
1053, 4868.26907144096 
1054, 4874.89846636521 
1055, 4870.73986844426 
1056, 4866.30497281146 
1057, 4868.72266455053 
1058, 4879.71420916603 
1059, 4893.15418038381 
1060, 4909.32157770142 
1061, 4934.48634443797 
1062, 4957.49521340443 
1063, 4979.79591636121 
1064, 5002.61172299812 
1065, 5029.98011210949 
1066, 5058.45440190009 
1067, 5094.55653092148 
1068, 5139.87237880187 
1069, 5185.72738491946 
1070, 5236.37959990457 
1071, 5287.97253780654 
1072, 5335.58853840642 
1073, 5384.98308940587 
1074, 5437.34284913056 
1075, 5486.78145584151 
1076, 5534.6514179655 
1077, 5584.67353637299 
1078, 5628.12760210398 
1079, 5671.42233324719 
1080, 5705.2768931865 
1081, 5725.61882003966 
1082, 5743.59750963024 
1083, 5761.53599435474 
1084, 5780.56442150098 
1085, 5803.06668168222 
1086, 5817.93789481982 
1087, 5831.26730480305 
1088, 5841.7144045728 
1089, 5847.000135024 
1090, 5846.52420845193 
1091, 5848.07435831172 
1092, 5838.1507849678 
1093, 5811.29251186583 
1094, 5788.82822965892 
1095, 5760.33299673857 
1096, 5729.90078250287 
1097, 5706.22015659222 
1098, 5682.57148838051 
1099, 5653.65651419591 
1100, 5620.45674278429 
1101, 5588.99519753641 
1102, 5556.63386237291 
1103, 5520.87522871493 
1104, 5486.86406995844 
1105, 5449.78699704179 
1106, 5406.65507741167 
1107, 5346.46580876094 
1108, 5262.48934909038 
1109, 5161.3614727574 
1110, 5026.46568162844 
1111, 4861.54153930658 
1112, 4678.03387164496 
1113, 4461.45633519951 
1114, 4245.38236044983 
1115, 3999.63949943409 
1116, 3773.54449300426 
1117, 3525.90756956295 
1118, 3317.75475625013 
1119, 3127.06953733591 
1120, 2948.18364902363 
1121, 2801.07642690717 
1122, 2684.78496585293 
1123, 2597.87809293701 
1124, 2536.88861244234 
1125, 2502.83552969971 
1126, 2511.24261061613 
1127, 2514.53505023499 
1128, 2539.09000704452 
1129, 2566.15492112779 
1130, 2605.2628306874 
1131, 2645.69516206297 
1132, 2692.10661052361 
1133, 2744.89342590483 
1134, 2800.25476929365 
1135, 2860.76178595077 
1136, 2946.72187963619 
1137, 3036.86771412949 
1138, 3128.81950915025 
1139, 3211.94609979828 
1140, 3262.5610177354 
1141, 3295.53318818104 
1142, 3304.07376242293 
1143, 3275.89818375177 
1144, 3255.40046787192 
1145, 3192.18499960634 
1146, 3176.68649096979 
1147, 3161.37098671918 
1148, 3181.89097015923 
1149, 3237.93773926945 
1150, 3308.80984668552 
1151, 3406.69833453712 
1152, 3516.28290045493 
1153, 3633.18169347091 
1154, 3770.5804260622 
1155, 3903.22308118218 
1156, 4050.25585583641 
1157, 4178.41198850673 
1158, 4309.46246869521 
1159, 4423.58211933823 
1160, 4523.81438219873 
1161, 4617.34107131469 
1162, 4702.35327074269 
1163, 4779.08818864982 
1164, 4848.35560928681 
1165, 4905.68069531291 
1166, 4956.36019310684 
1167, 4991.44533411294 
1168, 5013.05965639484 
1169, 5016.97159222997 
1170, 5019.57490580313 
1171, 5009.8033238039 
1172, 4997.47477623463 
1173, 4978.89861873383 
1174, 4958.02016377803 
1175, 4930.99216694472 
1176, 4900.29699578703 
1177, 4864.70200706924 
