Wavelength,0212202100115.asd
350, 2442.68497002583 
351, 2568.33693528411 
352, 2684.99407667683 
353, 2783.36911938791 
354, 2877.90472320816 
355, 2978.10431554498 
356, 3086.70302856249 
357, 3191.27670502979 
358, 3298.84404943238 
359, 3414.05776212291 
360, 3542.14879998976 
361, 3696.00055029692 
362, 3875.71859468681 
363, 4073.05017100082 
364, 4273.21294078966 
365, 4473.23957812767 
366, 4663.7901422506 
367, 4832.29482601614 
368, 4962.97204071662 
369, 5038.53144325456 
370, 5063.40665330407 
371, 5054.31931209598 
372, 5033.05855708153 
373, 5024.09083864651 
374, 5031.67370357129 
375, 5044.79522122236 
376, 5056.38609944474 
377, 5062.00483908907 
378, 5051.03039151059 
379, 5004.61327828885 
380, 4945.18417306545 
381, 4878.64565987012 
382, 4804.01299073803 
383, 4711.61177456909 
384, 4614.63450265616 
385, 4545.64055891426 
386, 4544.57338212545 
387, 4637.30215113639 
388, 4772.63332570738 
389, 4892.02717266952 
390, 4943.6935402433 
391, 5000.12535541455 
392, 5055.67482518664 
393, 5099.63091660912 
394, 5136.51591765612 
395, 5241.70215943482 
396, 5449.90057978933 
397, 5774.6804836026 
398, 6229.85292212985 
399, 6749.48994002186 
400, 7284.2123672322 
401, 7804.77165177414 
402, 8298.47615695605 
403, 8705.53232303621 
404, 9000.17690265712 
405, 9227.56787106086 
406, 9407.54055871296 
407, 9568.35448686426 
408, 9743.71619069648 
409, 9981.06686501251 
410, 10268.2294595556 
411, 10588.1775653495 
412, 10921.1147597102 
413, 11248.0279859241 
414, 11571.5780755563 
415, 11885.7914847465 
416, 12162.7118597856 
417, 12422.3740357139 
418, 12686.9944941555 
419, 12965.0796415682 
420, 13207.6986797542 
421, 13452.4564611306 
422, 13718.6059320342 
423, 14004.6266710594 
424, 14270.2913605887 
425, 14481.2308921775 
426, 14606.0399529884 
427, 14612.439589015 
428, 14556.2270477893 
429, 14565.1902939759 
430, 14741.3648591565 
431, 15002.8907722988 
432, 15347.6849108598 
433, 15854.5423008795 
434, 16627.1080763606 
435, 17450.656864051 
436, 18081.2359359294 
437, 18467.9298105162 
438, 18878.2315615933 
439, 19301.178022373 
440, 19699.2148368873 
441, 20056.5896043946 
442, 20519.7199039053 
443, 21010.5940688562 
444, 21461.3298834066 
445, 21823.935313868 
446, 22119.4703378618 
447, 22384.6955882131 
448, 22662.6452192701 
449, 23010.4635876425 
450, 23305.7573781216 
451, 23464.615067336 
452, 23454.7953891486 
453, 23392.8971602923 
454, 23259.9492531164 
455, 23090.4691049518 
456, 22967.9892926701 
457, 22935.388937934 
458, 22939.7915384478 
459, 22923.5300999009 
460, 22859.9892967874 
461, 22766.9742917852 
462, 22666.3656431442 
463, 22568.4783244544 
464, 22416.5044488158 
465, 22185.2340554043 
466, 21900.555450885 
467, 21636.7808752954 
468, 21414.0103234724 
469, 21246.6867717917 
470, 21141.4932844063 
471, 21103.4497251961 
472, 21076.8623291307 
473, 21067.4549968072 
474, 21097.835847781 
475, 21089.626918894 
476, 21064.68047055 
477, 21048.5434511285 
478, 21059.0434238029 
479, 21126.3864051665 
480, 21221.2196179548 
481, 21289.7879609174 
482, 21271.0212262675 
483, 21113.3734018892 
484, 20782.9094502528 
485, 20286.1955627329 
486, 19800.0913272852 
487, 19454.8534003827 
488, 19352.8913991588 
489, 19576.6234618165 
490, 19936.1391648419 
491, 20233.7348332309 
492, 20340.2850033501 
493, 20379.3037498209 
494, 20435.6589478404 
495, 20549.7026661123 
496, 20710.0564523688 
497, 20761.1451039435 
498, 20704.2543350283 
499, 20574.170476719 
500, 20400.4555605976 
501, 20267.9085048654 
502, 20213.5204868648 
503, 20254.943045655 
504, 20442.2886515198 
505, 20705.6402790069 
506, 20974.1669820124 
507, 21188.3991673909 
508, 21351.3588946662 
509, 21479.5813737692 
510, 21599.7322940402 
511, 21759.535008518 
512, 21873.1880653436 
513, 21897.9387674054 
514, 21820.2442364119 
515, 21645.455257572 
516, 21407.4244187392 
517, 21171.3012864105 
518, 21033.5826446213 
519, 21210.1970450356 
520, 21721.356652805 
521, 22445.1780180951 
522, 23052.3103354359 
523, 23504.773053415 
524, 23821.975023477 
525, 24061.812114894 
526, 24169.551324724 
527, 24213.3255393935 
528, 24338.3617562494 
529, 24825.0771338929 
530, 25463.7746032115 
531, 26005.2029490759 
532, 26243.466087455 
533, 26326.7104288929 
534, 26449.0948315084 
535, 26714.987345032 
536, 27116.7683440557 
537, 27410.1623959192 
538, 27550.2271315743 
539, 27572.314724789 
540, 27564.9771949882 
541, 27590.1835215678 
542, 27733.5248250974 
543, 28061.7632002941 
544, 28434.0631782641 
545, 28761.7119516923 
546, 28994.5371721899 
547, 29126.8630244334 
548, 29215.6143509969 
549, 29320.3836445702 
550, 29477.0819342278 
551, 29636.9998248978 
552, 29760.5506678243 
553, 29851.8947755956 
554, 29948.5915296953 
555, 30022.4732040763 
556, 29999.2702276598 
557, 29837.8497840015 
558, 29565.8761418364 
559, 29331.0931289316 
560, 29224.0508635749 
561, 29279.2224901601 
562, 29413.9894550038 
563, 29494.2442257593 
564, 29453.7437066909 
565, 29312.4711130298 
566, 29109.8637481364 
567, 28902.54870439 
568, 28726.1386961972 
569, 28550.4179215783 
570, 28319.4796447105 
571, 28098.5327349151 
572, 28017.6702853904 
573, 28042.556372999 
574, 28037.9310358243 
575, 27915.7671652207 
576, 27682.3723393668 
577, 27469.5772013404 
578, 27360.1511958817 
579, 27396.8463737893 
580, 27544.225599132 
581, 27799.1881988282 
582, 28109.4860933708 
583, 28377.6132379169 
584, 28548.0784719021 
585, 28550.2054261159 
586, 28376.5483791365 
587, 28158.9509095479 
588, 27886.5639624734 
589, 27513.7566012558 
590, 27041.4187244719 
591, 26872.6946580288 
592, 27000.8801232533 
593, 27240.2059615237 
594, 27238.1673470931 
595, 27107.6715743202 
596, 26919.5451090507 
597, 26723.9572734259 
598, 26508.4908587018 
599, 26242.9623358278 
600, 25950.7355524399 
601, 25692.5766645736 
602, 25492.8476757498 
603, 25385.9653823589 
604, 25370.5141900103 
605, 25393.2488104771 
606, 25339.6947513136 
607, 25200.5230582075 
608, 25016.9908500455 
609, 24839.8633643276 
610, 24670.327480077 
611, 24514.9102954753 
612, 24385.1230156988 
613, 24250.5183519442 
614, 24091.7382870617 
615, 23915.0480573293 
616, 23775.8779084183 
617, 23688.0096683566 
618, 23684.5275982181 
619, 23783.6974692186 
620, 23892.8274969597 
621, 23905.1125504284 
622, 23785.189177019 
623, 23586.6833191816 
624, 23360.6239169078 
625, 23145.3322825989 
626, 22960.8374377305 
627, 22794.2085080464 
628, 22630.279300686 
629, 22475.8195272089 
630, 22360.0690445795 
631, 22370.2278336541 
632, 22452.1493782805 
633, 22554.5019240976 
634, 22665.7222819082 
635, 22754.3775230076 
636, 22818.1405838548 
637, 22862.5035626753 
638, 22879.2560866549 
639, 22848.3918932177 
640, 22753.6527751157 
641, 22591.4130837395 
642, 22464.1198070372 
643, 22390.5767418645 
644, 22347.0947168498 
645, 22261.3543107449 
646, 22123.0703925035 
647, 21948.0490417591 
648, 21769.9805377496 
649, 21625.3807002057 
650, 21518.0123093194 
651, 21467.2665511582 
652, 21502.1661677494 
653, 21463.6958833015 
654, 21236.3743161018 
655, 20798.2239617039 
656, 20283.8816263821 
657, 19913.4433300376 
658, 19923.5476625521 
659, 20436.5989152258 
660, 20965.6258909283 
661, 21274.4989612513 
662, 21344.2633799992 
663, 21382.7441379076 
664, 21371.0879530206 
665, 21345.9928578731 
666, 21339.585591214 
667, 21353.6042327356 
668, 21352.9385417606 
669, 21338.7254329267 
670, 21328.430425959 
671, 21292.36375856 
672, 21248.1418425139 
673, 21222.1668779016 
674, 21245.1018462354 
675, 21279.2496446861 
676, 21306.3898696567 
677, 21320.572833357 
678, 21337.3257247826 
679, 21347.9172758865 
680, 21351.3889041807 
681, 21350.3043314307 
682, 21342.5473766411 
683, 21299.4476923446 
684, 21128.0975321803 
685, 20653.7053856186 
686, 19806.6500472678 
687, 18662.5932160971 
688, 17501.0911958073 
689, 17016.2073142604 
690, 17373.2797743526 
691, 18253.2568939085 
692, 19049.2896256703 
693, 19745.7782952376 
694, 20252.3750608453 
695, 20562.2095279761 
696, 20780.0701310957 
697, 20972.9906429756 
698, 21108.3275301992 
699, 21141.7806138435 
700, 21099.7758747868 
701, 21057.7764628152 
702, 21069.011279674 
703, 21164.8116708408 
704, 21352.5884956517 
705, 21569.7783834015 
706, 21755.9942815576 
707, 21868.1171374108 
708, 21963.4777365006 
709, 22050.5646540644 
710, 22126.9547532163 
711, 22201.5254552821 
712, 22257.0860699164 
713, 22283.0210926014 
714, 22265.7445094329 
715, 22161.3015032536 
716, 21869.3343792384 
717, 21346.7904490618 
718, 20632.1770985069 
719, 20037.3609919693 
720, 19823.0628572588 
721, 20090.9423589767 
722, 20647.7890512259 
723, 21040.2675569288 
724, 21109.8199853267 
725, 20936.4148576327 
726, 20900.3217095873 
727, 20971.7833726867 
728, 21077.9697601863 
729, 21148.4816692904 
730, 21304.7249430383 
731, 21576.9144241129 
732, 21948.2343549316 
733, 22356.5543953251 
734, 22714.0795089321 
735, 22950.010520376 
736, 23031.2645495183 
737, 23025.3799421103 
738, 23005.6215332191 
739, 22990.7117453455 
740, 22955.5069443264 
741, 22953.4471074007 
742, 22995.7438139414 
743, 23078.317296267 
744, 23187.6984142034 
745, 23263.3228479028 
746, 23301.0044553058 
747, 23312.3358543803 
748, 23290.652093728 
749, 23225.7626950999 
750, 23133.5729088433 
751, 23048.8007720473 
752, 23010.1683732349 
753, 23005.5058980238 
754, 23010.7015883917 
755, 22993.9437609473 
756, 22889.816684308 
757, 22420.4766777484 
758, 21141.2284998487 
759, 18297.9810070297 
760, 14099.6805181273 
761, 9969.56345989404 
762, 7638.24532893421 
763, 7616.94189273533 
764, 8834.65136013591 
765, 10741.1151556645 
766, 13263.8688950126 
767, 16019.5073127853 
768, 18418.7427535595 
769, 20094.3052323426 
770, 21033.346381891 
771, 21497.8242688502 
772, 21681.2816413404 
773, 21730.4396052101 
774, 21722.3133072074 
775, 21673.3756328851 
776, 21606.9807722841 
777, 21538.7405182402 
778, 21450.3941475834 
779, 21345.6056313967 
780, 21239.4440666489 
781, 21151.5655928554 
782, 21057.5911704804 
783, 20943.9281608615 
784, 20812.6763629037 
785, 20686.3465912615 
786, 20557.7750745082 
787, 20406.6069364161 
788, 20217.6207385513 
789, 19997.9501233872 
790, 19764.0971425414 
791, 19526.4658756649 
792, 19292.9291108262 
793, 19070.1507617829 
794, 18889.268448558 
795, 18768.1250872959 
796, 18705.7146928848 
797, 18658.014341745 
798, 18581.6485053052 
799, 18454.1389722574 
800, 18280.4340652223 
801, 18087.6377690836 
802, 17907.161210043 
803, 17754.0284231235 
804, 17607.5549792263 
805, 17481.8966031039 
806, 17366.2155416129 
807, 17238.0614126853 
808, 17069.3576830429 
809, 16863.1830312504 
810, 16630.8405860413 
811, 16380.8703382375 
812, 16084.9741115759 
813, 15695.4643269171 
814, 15206.393749108 
815, 14660.4077754451 
816, 14153.8228698633 
817, 13758.5419422553 
818, 13518.8876343471 
819, 13446.7211193286 
820, 13435.238011321 
821, 13395.1718864763 
822, 13288.1416293366 
823, 13165.3587267897 
824, 13082.8412852157 
825, 13094.9695702416 
826, 13190.5148639728 
827, 13166.7654183638 
828, 13022.8367331244 
829, 12826.6587074924 
830, 12672.9995734242 
831, 12574.1775077359 
832, 12503.127482124 
833, 12446.2657405018 
834, 12405.3422234012 
835, 12388.253876948 
836, 12383.1098028512 
837, 12366.3928260126 
838, 12307.5606811976 
839, 12218.5346035768 
840, 12111.3177354363 
841, 11994.1222498488 
842, 11867.4961507991 
843, 11735.1344821173 
844, 11605.159232673 
845, 11481.7434526204 
846, 11360.83197492 
847, 11209.3676559007 
848, 11025.6852116136 
849, 10821.8795025112 
850, 10613.2621907322 
851, 10373.2328511951 
852, 10125.9478297836 
853, 9916.43156819883 
854, 9761.87270091489 
855, 9636.37536784969 
856, 9575.87057507416 
857, 9634.33955068354 
858, 9731.33246582256 
859, 9754.30650689491 
860, 9682.74652353968 
861, 9578.49869828908 
862, 9454.14381562021 
863, 9291.20122570645 
864, 9092.44524934717 
865, 8889.29692389978 
866, 8696.28480121675 
867, 8531.48040542712 
868, 8422.22060981721 
869, 8404.68780703669 
870, 8424.31783383857 
871, 8415.22122321946 
872, 8346.15461589458 
873, 8249.23351632411 
874, 8143.84534080318 
875, 8037.4447905251 
876, 7932.07810609745 
877, 7828.21479099387 
878, 7727.19722958552 
879, 7628.70201163661 
880, 7530.7421252746 
881, 7428.16324675594 
882, 7328.25187338356 
883, 7234.1163024139 
884, 7145.30452366371 
885, 7056.62238729896 
886, 6961.68467105351 
887, 6861.71063994912 
888, 6761.41240800502 
889, 6664.11332309908 
890, 6568.1172241055 
891, 6461.73004292882 
892, 6330.50689285526 
893, 6170.34201994228 
894, 5981.37815025571 
895, 5772.03031932084 
896, 5554.50808906971 
897, 5333.05428120188 
898, 5123.83556112695 
899, 4950.28368692726 
900, 4833.27934094516 
901, 4766.22342923341 
902, 4737.81928018395 
903, 4728.00059334171 
904, 4714.10882843355 
905, 4689.91582784039 
906, 4640.13598890165 
907, 4555.4285871697 
908, 4436.76791737102 
909, 4306.16981455389 
910, 4195.26942507477 
911, 4116.19786830989 
912, 4062.25468630941 
913, 4017.26391527465 
914, 3973.33438560989 
915, 3929.3120290287 
916, 3889.86539232021 
917, 3864.49262489994 
918, 3845.8765299607 
919, 3828.3473964155 
920, 3809.1117608198 
921, 3788.16843898684 
922, 3757.27626895126 
923, 3708.69779790765 
924, 3637.0069619016 
925, 3541.9853205942 
926, 3430.53049644788 
927, 3296.68483159745 
928, 3128.80550108656 
929, 2935.05389141955 
930, 2718.41822339621 
931, 2489.65144070235 
932, 2265.76771453216 
933, 2064.70325595816 
934, 1906.40284544232 
935, 1800.00857121196 
936, 1744.62809888187 
937, 1733.3052749183 
938, 1749.04258082505 
939, 1773.54136072453 
940, 1793.06808243422 
941, 1810.4857104415 
942, 1816.89603706186 
943, 1802.57430673085 
944, 1764.57321338164 
945, 1718.94953252062 
946, 1677.57152316461 
947, 1651.06872087262 
948, 1642.65300785506 
949, 1640.1877750579 
950, 1638.6598320714 
951, 1634.5753514768 
952, 1627.19842076487 
953, 1619.32957509859 
954, 1612.65399191883 
955, 1604.66475663162 
956, 1595.83915698003 
957, 1594.26286700503 
958, 1593.3097394634 
959, 1592.48668704184 
960, 1593.52357562555 
961, 1598.73277136031 
962, 1600.78284021415 
963, 1604.48178552579 
964, 1611.79310570315 
965, 1618.59204181691 
966, 1623.95763588569 
967, 1624.6028300078 
968, 1619.92689667485 
969, 1612.04375810351 
970, 1602.33499056502 
971, 1588.89562802976 
972, 1569.57153433141 
973, 1543.00098847593 
974, 1509.72165163961 
975, 1476.80322898348 
976, 1446.18931085612 
977, 1417.93147251501 
978, 1396.40452175892 
979, 1378.23425071375 
980, 1361.83746036678 
981, 1346.24781900133 
982, 1330.4149306473 
983, 1314.33670709847 
984, 1297.05610272041 
985, 1277.79889778093 
986, 1256.47757973257 
987, 1232.69677651242 
988, 1208.63501574281 
989, 1184.79464941785 
990, 1159.61720793808 
991, 1134.04253893104 
992, 1108.63203652363 
993, 1083.45190030817 
994, 1058.33630857972 
995, 1033.84327917058 
996, 1008.8195078514 
997, 983.033032408881 
998, 956.857880783201 
999, 930.714198919998 
1000, 906.016798412773 
1001, 5745.6065430364 
1002, 5730.89306283476 
1003, 5708.03571955732 
1004, 5697.21068257927 
1005, 5695.1679633643 
1006, 5684.93478260306 
1007, 5688.35894211364 
1008, 5698.60029131257 
1009, 5710.41895739542 
1010, 5730.1486568488 
1011, 5749.11230507822 
1012, 5770.37418449759 
1013, 5789.47292811499 
1014, 5812.74093415677 
1015, 5835.50947441922 
1016, 5860.18242790211 
1017, 5884.23093092271 
1018, 5908.03924764047 
1019, 5933.40114431392 
1020, 5956.16823875311 
1021, 5985.3627029747 
1022, 6016.94669507236 
1023, 6052.77359985435 
1024, 6083.77344504375 
1025, 6118.40021576981 
1026, 6155.27778310291 
1027, 6189.86021305786 
1028, 6229.99630831364 
1029, 6270.11151376272 
1030, 6305.71367828904 
1031, 6340.72243747931 
1032, 6367.81233953884 
1033, 6392.33048105142 
1034, 6419.07951352555 
1035, 6445.77191988077 
1036, 6470.77224860287 
1037, 6499.36733175181 
1038, 6525.87843912433 
1039, 6543.75379834133 
1040, 6560.67070713857 
1041, 6582.04078234812 
1042, 6600.39311980149 
1043, 6615.39857995383 
1044, 6631.45017681441 
1045, 6644.84033296503 
1046, 6660.87500958749 
1047, 6679.96065087884 
1048, 6705.97418666892 
1049, 6731.91258209442 
1050, 6752.47696139625 
1051, 6768.97697541631 
1052, 6790.69389021224 
1053, 6813.51929915528 
1054, 6837.09411305325 
1055, 6870.92150624194 
1056, 6903.34519697968 
1057, 6939.11826909091 
1058, 6979.97519356117 
1059, 7014.17562223177 
1060, 7054.18001083436 
1061, 7091.18256661132 
1062, 7143.77632562209 
1063, 7204.41517488753 
1064, 7271.79719681691 
1065, 7346.08235353396 
1066, 7420.26288128492 
1067, 7484.92099694569 
1068, 7557.67221555177 
1069, 7645.96959372085 
1070, 7743.03046190123 
1071, 7845.459054321 
1072, 7948.24327757791 
1073, 8051.72316145556 
1074, 8156.63839932001 
1075, 8255.21466185504 
1076, 8357.02558296768 
1077, 8451.76712588961 
1078, 8525.59051045932 
1079, 8598.39206818695 
1080, 8660.69549732602 
1081, 8717.29612415425 
1082, 8776.82968093729 
1083, 8825.53065332031 
1084, 8871.52660483079 
1085, 8917.55074069851 
1086, 8958.63112487049 
1087, 8999.94391460813 
1088, 9031.71504120478 
1089, 9061.1968409487 
1090, 9077.68512984759 
1091, 9086.00233363614 
1092, 9082.31494562543 
1093, 9069.96188753185 
1094, 9051.00330214009 
1095, 9022.99959111644 
1096, 8994.2206761547 
1097, 8962.51707806778 
1098, 8926.78852472012 
1099, 8893.88406253174 
1100, 8862.30026393214 
1101, 8829.08119582374 
1102, 8801.35104762283 
1103, 8761.04964534613 
1104, 8719.8863747387 
1105, 8667.5632843689 
1106, 8608.52815404824 
1107, 8523.13450544309 
1108, 8407.27570263838 
1109, 8263.19209844923 
1110, 8057.54213076784 
1111, 7809.35620657002 
1112, 7525.5931586487 
1113, 7185.71110137158 
1114, 6840.10511601376 
1115, 6437.61766034127 
1116, 6073.82131098608 
1117, 5672.29039423357 
1118, 5337.48655463858 
1119, 5030.23133191029 
1120, 4756.29928083097 
1121, 4537.73235846389 
1122, 4357.23347445031 
1123, 4224.82617266941 
1124, 4138.02267796623 
1125, 4094.41092925113 
1126, 4111.46993991582 
1127, 4131.5954303937 
1128, 4195.76041864978 
1129, 4259.7634969085 
1130, 4344.45426874434 
1131, 4430.82366499961 
1132, 4523.50046410254 
1133, 4633.66826544268 
1134, 4753.02577468586 
1135, 4878.83831899862 
1136, 5049.56763505494 
1137, 5230.53641868252 
1138, 5406.54187799935 
1139, 5569.39137505208 
1140, 5671.40610870084 
1141, 5741.95564098784 
1142, 5765.16117613796 
1143, 5713.43607795838 
1144, 5687.28220750252 
1145, 5588.69286251572 
1146, 5576.13692274762 
1147, 5571.27402212532 
1148, 5628.48531477772 
1149, 5745.47575393107 
1150, 5894.87641578121 
1151, 6092.9185386246 
1152, 6318.65447592657 
1153, 6553.89683275793 
1154, 6829.85503664637 
1155, 7085.91193967128 
1156, 7357.41143135257 
1157, 7607.82560011691 
1158, 7857.81674969327 
1159, 8090.0920666834 
1160, 8317.08161024294 
1161, 8519.15039361909 
1162, 8711.68667791059 
1163, 8876.15828628613 
1164, 9015.63045865083 
1165, 9133.22706282606 
1166, 9233.8993380981 
1167, 9309.8071799316 
1168, 9368.46727842401 
1169, 9408.9149602506 
1170, 9428.50961177667 
1171, 9421.77340750302 
1172, 9408.62113452254 
1173, 9373.07253336376 
1174, 9336.59833520209 
1175, 9291.59111252535 
1176, 9238.59696797 
1177, 9172.58714246012 
