Wavelength,0212202100088.asd
350, 113.888199923613 
351, 118.899883252953 
352, 124.152214646824 
353, 129.010951186011 
354, 134.286189982123 
355, 138.718825900033 
356, 141.86419040115 
357, 147.377381401373 
358, 152.509118357942 
359, 156.441070032252 
360, 160.066772703693 
361, 168.05933694465 
362, 176.850217326857 
363, 184.935253583813 
364, 193.443603535937 
365, 202.365921266839 
366, 210.519811957723 
367, 217.107685855725 
368, 222.448184356922 
369, 227.337196694052 
370, 229.507898682909 
371, 227.352774481036 
372, 225.22137893133 
373, 225.657046120339 
374, 226.994642576252 
375, 225.41403606332 
376, 224.377018948976 
377, 225.159950436789 
378, 226.506773509323 
379, 224.253351128156 
380, 221.375246475031 
381, 218.167126437225 
382, 214.504057851663 
383, 210.898314195978 
384, 206.625128119135 
385, 203.091505750945 
386, 202.692316991853 
387, 207.179733384165 
388, 212.479355188938 
389, 216.463212007397 
390, 219.617905325153 
391, 221.694947868535 
392, 224.640513920002 
393, 228.640847441859 
394, 228.391843812359 
395, 232.208887645657 
396, 241.09176109772 
397, 253.716522385846 
398, 272.573651873889 
399, 294.64946500394 
400, 317.565869150135 
401, 339.852372004122 
402, 361.279366200466 
403, 378.937352723522 
404, 391.369367804924 
405, 400.276315227938 
406, 407.815228326694 
407, 414.50455219469 
408, 420.985510201664 
409, 431.198171844232 
410, 442.907368438538 
411, 455.533424028572 
412, 469.779175956083 
413, 484.344200394081 
414, 498.956693419891 
415, 512.632976212481 
416, 522.753670234074 
417, 533.878444305227 
418, 545.480177046294 
419, 555.865509393958 
420, 565.581715306735 
421, 574.704848023453 
422, 584.928581269359 
423, 598.186946037446 
424, 606.822088908346 
425, 614.250823878565 
426, 621.37279884841 
427, 622.201796424825 
428, 620.621009926935 
429, 620.705043982932 
430, 626.011242659119 
431, 637.658010966566 
432, 651.397872015943 
433, 671.009694508107 
434, 704.235962066477 
435, 737.014083686945 
436, 762.56317982613 
437, 780.155210565974 
438, 796.908190616643 
439, 814.027481657206 
440, 830.912481856366 
441, 846.860704856172 
442, 864.496556632888 
443, 883.054315793203 
444, 900.625646552127 
445, 914.842196482928 
446, 927.827591100057 
447, 939.77693864585 
448, 951.097556085736 
449, 963.209941286697 
450, 975.105217739753 
451, 982.011844913215 
452, 980.399707380835 
453, 978.336458766625 
454, 972.553781004464 
455, 963.997646000007 
456, 957.667563324899 
457, 957.326144403199 
458, 957.997620667797 
459, 955.775070638049 
460, 952.461799078238 
461, 949.638606878104 
462, 946.733205458555 
463, 942.224199113295 
464, 935.43756527966 
465, 925.020300099265 
466, 911.784649661364 
467, 898.825340176652 
468, 890.184079010871 
469, 883.930967938639 
470, 878.525874993553 
471, 877.541055034279 
472, 875.656847734007 
473, 873.966787749558 
474, 875.598232624608 
475, 875.294563219624 
476, 874.56134842665 
477, 874.320254704129 
478, 874.034612137618 
479, 877.298001453962 
480, 881.274909204236 
481, 882.493752409114 
482, 881.587265377655 
483, 874.676929503098 
484, 860.702229491008 
485, 841.248803033652 
486, 821.8745343874 
487, 806.949438639359 
488, 801.424596368052 
489, 812.066223846398 
490, 826.462882959128 
491, 836.981101253328 
492, 840.351881434766 
493, 843.182961180775 
494, 845.931047458065 
495, 849.716352145399 
496, 855.681871465323 
497, 857.787446507107 
498, 855.726120518995 
499, 850.493961605022 
500, 843.0091294516 
501, 837.314266898352 
502, 834.994023269756 
503, 836.539654840342 
504, 843.218140001556 
505, 853.636984414592 
506, 865.005216429603 
507, 873.40990473116 
508, 878.930176893391 
509, 883.019957930548 
510, 887.631912318481 
511, 895.471330290613 
512, 900.086677702469 
513, 899.925530740736 
514, 896.295198123457 
515, 889.358028975373 
516, 879.772443352554 
517, 869.843624492229 
518, 863.823225011079 
519, 870.791124758211 
520, 891.803131516281 
521, 921.629019470088 
522, 944.623418287836 
523, 963.116594595288 
524, 976.528271847824 
525, 982.536446449805 
526, 988.011143076573 
527, 992.111701619075 
528, 997.408273787585 
529, 1016.9086378714 
530, 1041.0015171205 
531, 1061.76827733586 
532, 1073.04300376614 
533, 1075.59376792635 
534, 1079.10626975899 
535, 1089.33765794173 
536, 1106.58643679615 
537, 1118.34679719575 
538, 1123.73176912958 
539, 1125.08862894663 
540, 1124.28013683671 
541, 1125.47394982968 
542, 1131.65864559733 
543, 1143.98162716333 
544, 1156.80448131839 
545, 1169.35519706381 
546, 1180.00968758193 
547, 1184.70308689051 
548, 1189.42016286489 
549, 1194.32797444425 
550, 1198.41992181779 
551, 1203.913408166 
552, 1208.75893045098 
553, 1212.66365398247 
554, 1216.74711862377 
555, 1219.33100335596 
556, 1217.73503577681 
557, 1211.12471115136 
558, 1202.75340247484 
559, 1192.35383376783 
560, 1185.85388442682 
561, 1189.28628911387 
562, 1193.76403896848 
563, 1196.94434698266 
564, 1196.73438171712 
565, 1190.86693338653 
566, 1181.90225609683 
567, 1173.16144277786 
568, 1166.43565933298 
569, 1158.50574396235 
570, 1148.07905191087 
571, 1138.45433044933 
572, 1135.24075783965 
573, 1136.35271136078 
574, 1136.30970184476 
575, 1131.25970122299 
576, 1120.3576052463 
577, 1112.52165120352 
578, 1109.39861969664 
579, 1109.99295942046 
580, 1114.26442947313 
581, 1123.57508883312 
582, 1136.48287175391 
583, 1148.79126255384 
584, 1156.00780382115 
585, 1155.76863171642 
586, 1148.68991003367 
587, 1140.72750903531 
588, 1129.93045312319 
589, 1114.21596769824 
590, 1094.13314817491 
591, 1086.83717810221 
592, 1092.70256707103 
593, 1103.48029755206 
594, 1102.50587121585 
595, 1096.85600279793 
596, 1089.36679945279 
597, 1081.29249511869 
598, 1070.89184711901 
599, 1060.45102087188 
600, 1050.25454580151 
601, 1039.50787273393 
602, 1031.11174415465 
603, 1025.9637707516 
604, 1024.21190727665 
605, 1025.69458355419 
606, 1025.27012931305 
607, 1020.57176114851 
608, 1011.84885860396 
609, 1005.21477656224 
610, 998.731339818673 
611, 992.176711099386 
612, 987.12445180194 
613, 980.979617093453 
614, 974.337072952331 
615, 968.240937210134 
616, 963.106632034504 
617, 959.140067380859 
618, 958.475893785125 
619, 962.89647806438 
620, 966.925012345125 
621, 967.095125847267 
622, 962.35591010413 
623, 954.386827375694 
624, 945.508710089655 
625, 936.560615621307 
626, 928.103167167426 
627, 921.594312522063 
628, 915.204611770297 
629, 909.580896743043 
630, 906.78161306596 
631, 905.906796372195 
632, 908.191973909891 
633, 913.350856249923 
634, 918.353810934552 
635, 922.845387881869 
636, 925.291829516979 
637, 924.954679554877 
638, 925.278280340753 
639, 924.784556202395 
640, 921.760046832641 
641, 914.925279099338 
642, 909.422539994208 
643, 905.893916146103 
644, 903.677771622291 
645, 901.613515875339 
646, 896.306684263705 
647, 888.467069714118 
648, 880.805389440576 
649, 876.1386650303 
650, 871.702883743513 
651, 868.283233964546 
652, 870.154399240944 
653, 869.317639891953 
654, 859.501159361916 
655, 839.691868260312 
656, 818.934049400273 
657, 805.0367246937 
658, 806.281095194153 
659, 826.408575930703 
660, 846.254371002172 
661, 857.987862499139 
662, 860.985078959684 
663, 861.821670686631 
664, 860.811772907344 
665, 859.473931298036 
666, 858.992899260538 
667, 859.60626936395 
668, 859.602977658205 
669, 858.856615784276 
670, 858.09635261175 
671, 856.995897178669 
672, 855.851181908387 
673, 854.92690938701 
674, 854.352186401544 
675, 854.941102388683 
676, 856.154415047913 
677, 857.189208330149 
678, 857.786255443501 
679, 857.798604370726 
680, 857.421572874638 
681, 857.054675596376 
682, 857.223271133005 
683, 855.739555102306 
684, 848.524266003852 
685, 829.517797268046 
686, 794.600559007143 
687, 747.542168400629 
688, 700.505235844728 
689, 680.819582939639 
690, 696.115555575724 
691, 731.802970828185 
692, 760.99707475936 
693, 790.660840253347 
694, 813.513847392806 
695, 826.822161414219 
696, 836.286482142031 
697, 842.97564920712 
698, 847.100935330796 
699, 848.573974391751 
700, 847.69997082922 
701, 845.912923831138 
702, 845.588215623722 
703, 849.338050030187 
704, 857.342983837032 
705, 865.972342029751 
706, 872.33855315292 
707, 875.318338431636 
708, 880.661589934302 
709, 885.847376444281 
710, 888.032902733779 
711, 891.259074105128 
712, 892.991253465373 
713, 893.974088728757 
714, 895.595496018594 
715, 889.614620719081 
716, 877.505083627276 
717, 859.076468085554 
718, 830.768379067896 
719, 806.557940267575 
720, 798.682581586644 
721, 811.433436922124 
722, 832.220696846629 
723, 847.379928582441 
724, 850.237755256902 
725, 842.00727399363 
726, 841.760141757742 
727, 844.811487644041 
728, 847.346472084011 
729, 849.134194238177 
730, 856.889229634556 
731, 868.82762617596 
732, 882.016543213825 
733, 895.597077504272 
734, 908.971007648804 
735, 918.647975061916 
736, 921.5871501753 
737, 921.962142076236 
738, 921.233780942334 
739, 920.507954418328 
740, 920.483026471915 
741, 920.029322874196 
742, 921.040655544782 
743, 924.282904591284 
744, 927.858053420916 
745, 931.096959544759 
746, 932.987195596175 
747, 932.938843930143 
748, 931.812412972639 
749, 929.685148508552 
750, 926.050103860532 
751, 920.745586733207 
752, 918.566454092063 
753, 918.562015150167 
754, 919.211974313244 
755, 919.069142390786 
756, 914.550328110814 
757, 896.313827532725 
758, 847.172017669226 
759, 733.179195297895 
760, 564.558294461123 
761, 398.804489202034 
762, 305.308060141493 
763, 305.131398265934 
764, 353.25235688099 
765, 428.315727774953 
766, 529.982127911521 
767, 639.51534262978 
768, 735.368233235596 
769, 803.491870946331 
770, 840.885358130388 
771, 860.601384436348 
772, 869.256534213003 
773, 871.390813877092 
774, 870.854717868207 
775, 869.107854293756 
776, 867.070636282209 
777, 865.009456363689 
778, 862.374143512833 
779, 859.788922756165 
780, 856.134573864107 
781, 849.452937076069 
782, 846.092226277278 
783, 843.402191625386 
784, 839.044579771389 
785, 833.349922946836 
786, 827.825604319313 
787, 821.952565175935 
788, 815.183351007513 
789, 808.818296471508 
790, 799.2056851356 
791, 787.956215060863 
792, 778.503059922442 
793, 770.526488730457 
794, 764.232978567292 
795, 759.230319129038 
796, 754.827660931924 
797, 752.161995940658 
798, 749.939337192942 
799, 746.384913578815 
800, 739.694468188169 
801, 731.691573824615 
802, 724.906391786564 
803, 719.949554709472 
804, 712.830240201803 
805, 706.701954650535 
806, 701.34473943629 
807, 695.65488693076 
808, 689.84425037443 
809, 682.941977989936 
810, 674.299322334407 
811, 663.535482070673 
812, 650.525876003526 
813, 634.686441430744 
814, 616.169131732719 
815, 596.022896366257 
816, 576.472658128902 
817, 560.306511272648 
818, 550.093911646459 
819, 547.863372072536 
820, 546.341927247298 
821, 544.212705266127 
822, 541.127672970186 
823, 534.809570358129 
824, 530.860983920965 
825, 531.72901196021 
826, 535.943537144882 
827, 533.576132052348 
828, 527.430011485902 
829, 519.894899444002 
830, 513.367252067448 
831, 511.508040957159 
832, 509.19867560636 
833, 506.061864264849 
834, 505.433273288162 
835, 503.887203176677 
836, 502.520455951262 
837, 501.51573041168 
838, 499.418248094124 
839, 495.768564261437 
840, 491.139872170733 
841, 486.056262861331 
842, 480.526340514723 
843, 475.347459193623 
844, 470.64193562028 
845, 465.89117614077 
846, 459.498594848331 
847, 453.52136851673 
848, 446.89476682641 
849, 438.454953822628 
850, 430.48124999146 
851, 421.528683959803 
852, 412.452744163788 
853, 404.712234898765 
854, 396.792080846822 
855, 392.133260946353 
856, 391.087133121653 
857, 392.02187490919 
858, 396.435972300365 
859, 398.15783078293 
860, 395.034163437438 
861, 389.410848744581 
862, 385.310487088718 
863, 379.0639010039 
864, 370.415206809254 
865, 363.682952629883 
866, 356.243343323112 
867, 349.490800777337 
868, 345.120195460282 
869, 344.159943998462 
870, 345.131344450424 
871, 345.005274517714 
872, 342.261865183769 
873, 338.579515710964 
874, 333.753901336959 
875, 329.111446666794 
876, 325.438237153775 
877, 321.502359489853 
878, 318.959171090147 
879, 315.692099561129 
880, 310.359240170154 
881, 306.977638028271 
882, 302.972468613557 
883, 298.722957984838 
884, 295.421344906371 
885, 293.829293238535 
886, 288.974312804911 
887, 283.292206010681 
888, 280.315425612925 
889, 274.604878719982 
890, 271.427368282397 
891, 269.351452340815 
892, 264.343719105895 
893, 256.565070126795 
894, 248.772959778687 
895, 240.754647122925 
896, 231.268724123133 
897, 222.799466029465 
898, 215.329554238978 
899, 208.729611806667 
900, 202.998588929793 
901, 198.607785034305 
902, 198.039106160719 
903, 199.592100067749 
904, 199.096623511773 
905, 194.977188611333 
906, 193.504047834858 
907, 192.544807853841 
908, 185.784942971761 
909, 180.760114521261 
910, 175.907484310353 
911, 172.374973456707 
912, 172.230024190803 
913, 168.295163856288 
914, 165.980446225161 
915, 165.722171375816 
916, 164.103328840335 
917, 162.744239936322 
918, 160.66372259581 
919, 158.610397261616 
920, 158.343869803453 
921, 159.521209576943 
922, 158.131685623091 
923, 154.643729424256 
924, 152.31282243845 
925, 149.714284434149 
926, 144.354461338721 
927, 137.282300882963 
928, 131.176813766092 
929, 123.322239117118 
930, 114.380243853546 
931, 105.199351222773 
932, 96.5401718697663 
933, 88.7405467724129 
934, 81.8717609992889 
935, 77.3195494744362 
936, 76.0160446934428 
937, 73.28408362157 
938, 75.4948927109905 
939, 78.5287771364439 
940, 76.1486847375783 
941, 77.5181775958691 
942, 78.9336239724087 
943, 78.3207609443447 
944, 75.7581890611693 
945, 75.280059481115 
946, 74.015191990748 
947, 72.3345742331957 
948, 71.4912476693716 
949, 71.3692983796781 
950, 70.4804358980726 
951, 69.7545345750626 
952, 70.3323001412115 
953, 71.8432943803971 
954, 71.773132288136 
955, 69.6279460394558 
956, 67.5133600244507 
957, 70.6529916370269 
958, 71.0722034300544 
959, 70.7040762787775 
960, 71.6554080384136 
961, 72.5285406706811 
962, 71.665769051866 
963, 71.1345808645678 
964, 71.0851416568877 
965, 69.1308443135337 
966, 69.6539220259982 
967, 71.2082418745027 
968, 71.6325512077403 
969, 69.8290989019404 
970, 70.1334360990903 
971, 70.5386952860317 
972, 69.3688781221362 
973, 66.6491567313077 
974, 66.6815516149418 
975, 66.9584930534206 
976, 65.772434416328 
977, 63.2775629682373 
978, 63.6353726669758 
979, 62.369466075159 
980, 61.4277940563274 
981, 62.3890312072477 
982, 60.4381042575139 
983, 59.737032912843 
984, 58.7756302013821 
985, 56.9714270536984 
986, 57.1821797432272 
987, 55.8860214523521 
988, 54.9993121764399 
989, 54.8447743761379 
990, 53.4285200599225 
991, 52.8322794314821 
992, 52.1412072589231 
993, 50.9827562185077 
994, 49.6755877647289 
995, 48.6682778426573 
996, 47.0770236869903 
997, 45.845248767765 
998, 45.6775987335908 
999, 43.9472505782601 
1000, 43.0097665622223 
1001, 260.275625491882 
1002, 262.504607614055 
1003, 260.634105746862 
1004, 250.875213731438 
1005, 244.467158093319 
1006, 248.21141536016 
1007, 255.32240922087 
1008, 257.099854040802 
1009, 259.896096135003 
1010, 261.364396472751 
1011, 261.746519452015 
1012, 258.461138616239 
1013, 266.198142033671 
1014, 269.459269386971 
1015, 269.448811337164 
1016, 271.298972389041 
1017, 272.517585907696 
1018, 274.044015795391 
1019, 278.182813967342 
1020, 284.987689828532 
1021, 289.241244359248 
1022, 290.915206092941 
1023, 290.059800762473 
1024, 289.46373122907 
1025, 290.569865799334 
1026, 289.510267288095 
1027, 293.417641018578 
1028, 296.53767404962 
1029, 294.80133810526 
1030, 299.367703003522 
1031, 298.697437514255 
1032, 295.088745193581 
1033, 299.076258589051 
1034, 297.247218850146 
1035, 295.654416575767 
1036, 294.821140246398 
1037, 297.159715660385 
1038, 290.323741847334 
1039, 289.741539339422 
1040, 293.094023942233 
1041, 291.390706002417 
1042, 296.855778650188 
1043, 297.459294429688 
1044, 292.516154579093 
1045, 296.809935953658 
1046, 296.295334215931 
1047, 296.312953414474 
1048, 295.859175798354 
1049, 302.76309576253 
1050, 303.48616166392 
1051, 299.315396071444 
1052, 300.198514935323 
1053, 295.998430494402 
1054, 288.246734467385 
1055, 295.851028819826 
1056, 305.829021946735 
1057, 308.645706480803 
1058, 309.824926362188 
1059, 310.972433700342 
1060, 312.580405072355 
1061, 309.773687759563 
1062, 308.682452646823 
1063, 310.014345862708 
1064, 313.983071817316 
1065, 311.992355027911 
1066, 315.259021500215 
1067, 321.887119132127 
1068, 327.755002718875 
1069, 332.865688976157 
1070, 340.888997716537 
1071, 347.372653285951 
1072, 347.745132347561 
1073, 350.374723426752 
1074, 348.768504706511 
1075, 351.440505816934 
1076, 357.864870783393 
1077, 364.518668324163 
1078, 363.063569203778 
1079, 369.336544999654 
1080, 373.34958757661 
1081, 373.584333743945 
1082, 377.044674712545 
1083, 375.381311759796 
1084, 373.631243788592 
1085, 374.315782207986 
1086, 376.308848666463 
1087, 383.029182001125 
1088, 387.175915023081 
1089, 391.93942012974 
1090, 392.007765287518 
1091, 388.733605282972 
1092, 386.866241918942 
1093, 382.641843942632 
1094, 385.584505805658 
1095, 390.863407836028 
1096, 394.201245315598 
1097, 397.466848414044 
1098, 398.550801598258 
1099, 398.258322519223 
1100, 396.895397901822 
1101, 394.415832846265 
1102, 388.778475512403 
1103, 385.048480304278 
1104, 381.799795250802 
1105, 377.587677819185 
1106, 374.648634520099 
1107, 372.719508472676 
1108, 364.50360280938 
1109, 355.96759847715 
1110, 349.521361283196 
1111, 338.935712432138 
1112, 327.451852668335 
1113, 316.384491475882 
1114, 304.551508013656 
1115, 292.293141843261 
1116, 273.91642511751 
1117, 250.750170558733 
1118, 232.366505835803 
1119, 208.90843320306 
1120, 188.048448119099 
1121, 182.234110134707 
1122, 172.945731727388 
1123, 167.602769132814 
1124, 168.084872644746 
1125, 169.499369245832 
1126, 175.554729171791 
1127, 180.385856986848 
1128, 187.150930138737 
1129, 192.448178666356 
1130, 196.673739769202 
1131, 202.279599255626 
1132, 209.462388960868 
1133, 215.508307529659 
1134, 222.832012925165 
1135, 226.533693776303 
1136, 231.944547584859 
1137, 238.173336877591 
1138, 242.137610203957 
1139, 247.150702340667 
1140, 253.67786469771 
1141, 263.071183773973 
1142, 265.369749963789 
1143, 268.472267818511 
1144, 266.218236695199 
1145, 249.673955507372 
1146, 246.056505896947 
1147, 246.742506217883 
1148, 248.486411131599 
1149, 254.229239795448 
1150, 263.340408047619 
1151, 276.689074034605 
1152, 285.889950902187 
1153, 296.923745359656 
1154, 313.126735289564 
1155, 324.944186685396 
1156, 333.248152264493 
1157, 342.820832102835 
1158, 350.804981306752 
1159, 361.49488589083 
1160, 374.43087279844 
1161, 385.574180913952 
1162, 399.08507075434 
1163, 410.465451313215 
1164, 419.999512566369 
1165, 425.140616733765 
1166, 441.15336233697 
1167, 452.067348526653 
1168, 456.951831892537 
1169, 459.565208451405 
1170, 462.375944379045 
1171, 456.260127476791 
1172, 457.428345999065 
1173, 465.275545849211 
1174, 467.89988091605 
1175, 469.741778985873 
1176, 469.797616678687 
1177, 464.635568537306 
