Wavelength,0212202100149.asd
350, 2164.93010318585 
351, 2276.21929005027 
352, 2379.41125402408 
353, 2467.1042776814 
354, 2551.80532887819 
355, 2640.07791432203 
356, 2733.88860390022 
357, 2827.11448620153 
358, 2923.02608207303 
359, 3025.34126781728 
360, 3139.57189310965 
361, 3278.22268662833 
362, 3437.50518902758 
363, 3609.8091248242 
364, 3785.64052024297 
365, 3965.32436468292 
366, 4137.14590887211 
367, 4287.18479396123 
368, 4402.23045272018 
369, 4469.28702601781 
370, 4491.59933623274 
371, 4482.7760520293 
372, 4463.01668815169 
373, 4456.12031339746 
374, 4464.06841481125 
375, 4473.56029637643 
376, 4483.49600061889 
377, 4489.20563734131 
378, 4480.26316429873 
379, 4439.56064787992 
380, 4385.83703570046 
381, 4325.51882043008 
382, 4258.83208354491 
383, 4176.1776770215 
384, 4090.05220318185 
385, 4029.26034257578 
386, 4028.92975593432 
387, 4113.47931603197 
388, 4233.35572336188 
389, 4336.72325621292 
390, 4382.29264470012 
391, 4430.68187218654 
392, 4479.15342366929 
393, 4519.20186181012 
394, 4550.22511120649 
395, 4643.65728148407 
396, 4828.88938344425 
397, 5115.60546910917 
398, 5520.99376094439 
399, 5981.32264826977 
400, 6452.39570878756 
401, 6912.37324763884 
402, 7349.97181855005 
403, 7710.59468751343 
404, 7970.35326715097 
405, 8169.79437581208 
406, 8327.43340008629 
407, 8468.85935713413 
408, 8624.1584229304 
409, 8835.23240572622 
410, 9089.75361542609 
411, 9372.5707840227 
412, 9667.29267689982 
413, 9957.89453502296 
414, 10245.5860205161 
415, 10523.682312343 
416, 10765.940947696 
417, 10995.7646366185 
418, 11231.3823009267 
419, 11477.5053771252 
420, 11692.3618947025 
421, 11909.0337695887 
422, 12145.0740980734 
423, 12399.8517470699 
424, 12635.2384547626 
425, 12820.4134678612 
426, 12928.6073099035 
427, 12934.0660694996 
428, 12883.9075839745 
429, 12892.1244047353 
430, 13049.9528666346 
431, 13282.2637506512 
432, 13588.7264856294 
433, 14039.6712573766 
434, 14726.1939579457 
435, 15453.0699637622 
436, 16007.3081287527 
437, 16346.5620675954 
438, 16707.8936937618 
439, 17079.0173052892 
440, 17429.7667291327 
441, 17748.8039504998 
442, 18159.2695006228 
443, 18590.1709824955 
444, 18985.3596319652 
445, 19309.4257778004 
446, 19569.0930556148 
447, 19801.9797150588 
448, 20049.6812338888 
449, 20358.6482420322 
450, 20618.7430624226 
451, 20757.1197306256 
452, 20747.4356820627 
453, 20692.0195150616 
454, 20573.9820558337 
455, 20425.2272163123 
456, 20321.7962650664 
457, 20296.5764296549 
458, 20300.3742271104 
459, 20283.0703788713 
460, 20227.9807788542 
461, 20146.4189942453 
462, 20057.6782562162 
463, 19972.1962016862 
464, 19839.9212215597 
465, 19634.6657928449 
466, 19380.1464588288 
467, 19147.6800116315 
468, 18951.8927444762 
469, 18805.4305764039 
470, 18713.6528286771 
471, 18677.5211175791 
472, 18653.1236693566 
473, 18646.2703054908 
474, 18674.8837238891 
475, 18665.0087598737 
476, 18640.5393222935 
477, 18626.1751636486 
478, 18635.6775237217 
479, 18696.9421894654 
480, 18780.8205127749 
481, 18838.571357605 
482, 18824.9340281522 
483, 18685.5058406437 
484, 18390.2792813495 
485, 17950.5056011954 
486, 17524.4333850569 
487, 17222.5263240692 
488, 17133.5141264154 
489, 17334.4977194735 
490, 17652.7586126849 
491, 17914.1973491441 
492, 18006.65689245 
493, 18038.7850349657 
494, 18088.9172889862 
495, 18191.2353397659 
496, 18330.6539418769 
497, 18372.4497959632 
498, 18320.7593546211 
499, 18206.3929102905 
500, 18049.1136144514 
501, 17928.3672735681 
502, 17877.8419430935 
503, 17912.8042512982 
504, 18077.3947121561 
505, 18308.6982910373 
506, 18543.6073919063 
507, 18729.8589325225 
508, 18872.7330951576 
509, 18985.8104402538 
510, 19091.6699743156 
511, 19234.5635549192 
512, 19334.4004987868 
513, 19353.2149256728 
514, 19281.1478950506 
515, 19123.3517267873 
516, 18910.0612105383 
517, 18699.2976041412 
518, 18577.0480360618 
519, 18733.9462070528 
520, 19186.5042165527 
521, 19824.9828921234 
522, 20354.7287007097 
523, 20749.3011274928 
524, 21026.2493672531 
525, 21231.9204572612 
526, 21319.0311822792 
527, 21352.6112941528 
528, 21462.6146259569 
529, 21891.1854581209 
530, 22449.4828652333 
531, 22919.1530653472 
532, 23122.2454603081 
533, 23189.4649759232 
534, 23294.8812304181 
535, 23530.1211246923 
536, 23884.3768298376 
537, 24138.6258274665 
538, 24255.5694542449 
539, 24269.6178632725 
540, 24260.0137486407 
541, 24280.6304730311 
542, 24403.9019718432 
543, 24685.7357012552 
544, 25011.4817601425 
545, 25295.4415607137 
546, 25491.7531499449 
547, 25605.8633541516 
548, 25682.5023417795 
549, 25771.6552872706 
550, 25904.4340465987 
551, 26042.2461400014 
552, 26148.9998553017 
553, 26226.8395603821 
554, 26307.5037300498 
555, 26369.5255272319 
556, 26345.2482631553 
557, 26198.0521673507 
558, 25958.6243575873 
559, 25751.8090774118 
560, 25655.7407067949 
561, 25700.9852273242 
562, 25816.8364178526 
563, 25882.2021335889 
564, 25839.1626646224 
565, 25710.1352530399 
566, 25530.1194405262 
567, 25345.4703503414 
568, 25184.1191512503 
569, 25018.8798658476 
570, 24808.6415339394 
571, 24611.886911302 
572, 24539.3376261795 
573, 24558.5766376125 
574, 24549.2298941042 
575, 24435.4942209514 
576, 24229.4447473143 
577, 24040.6065139836 
578, 23942.7539632681 
579, 23976.339858471 
580, 24110.1224706587 
581, 24338.571979601 
582, 24612.6576927407 
583, 24844.0970030115 
584, 24993.4001360124 
585, 24996.4101305964 
586, 24842.0806779978 
587, 24641.1525334985 
588, 24389.7929185141 
589, 24050.889583894 
590, 23627.10931671 
591, 23475.4826707089 
592, 23587.4170979635 
593, 23795.7798086122 
594, 23786.2022530819 
595, 23667.4747069971 
596, 23501.2597485412 
597, 23329.2518781029 
598, 23142.4575541239 
599, 22909.3134014291 
600, 22651.4241588207 
601, 22427.0419792025 
602, 22255.1475031528 
603, 22162.876603542 
604, 22148.5745198303 
605, 22170.1609286162 
606, 22122.8341396131 
607, 22000.9639944767 
608, 21843.9989201638 
609, 21691.3864691169 
610, 21545.1857392268 
611, 21411.5205385806 
612, 21300.0417044059 
613, 21183.1558206519 
614, 21046.2513389066 
615, 20895.8848537954 
616, 20776.8485857352 
617, 20704.174832074 
618, 20706.5506971996 
619, 20797.6478080118 
620, 20890.9053554108 
621, 20900.5580540583 
622, 20798.2209549257 
623, 20625.5136942687 
624, 20427.271410089 
625, 20237.6927137069 
626, 20074.4571909641 
627, 19923.9201256203 
628, 19772.9107596805 
629, 19631.1448630501 
630, 19529.7210112075 
631, 19543.0721161335 
632, 19621.3551823247 
633, 19716.6176795786 
634, 19814.8512022202 
635, 19894.2477035311 
636, 19951.6188563269 
637, 19989.6459398938 
638, 20004.7787718671 
639, 19976.6703186773 
640, 19891.0610525193 
641, 19747.0410661195 
642, 19632.5289530181 
643, 19564.207966162 
644, 19521.2368153212 
645, 19438.6431627218 
646, 19310.2896131262 
647, 19148.6731048854 
648, 18981.7245285886 
649, 18847.5003065397 
650, 18747.7960962176 
651, 18699.8178254848 
652, 18730.9098589047 
653, 18689.5382257378 
654, 18481.6999190164 
655, 18094.6957351774 
656, 17640.4445176981 
657, 17315.8214881076 
658, 17325.5943094483 
659, 17771.5659554886 
660, 18224.2529013774 
661, 18484.8361945361 
662, 18539.6182668644 
663, 18566.2362835171 
664, 18548.5871729064 
665, 18517.73186864 
666, 18502.1969432609 
667, 18508.9242336062 
668, 18503.6005300257 
669, 18484.6619908768 
670, 18466.5378486026 
671, 18430.8800687277 
672, 18387.0730752298 
673, 18355.3707421086 
674, 18365.9931873483 
675, 18391.2984189919 
676, 18410.6880316266 
677, 18414.5698757457 
678, 18422.7669848568 
679, 18424.9395504611 
680, 18420.758654337 
681, 18414.3195932302 
682, 18399.3007980866 
683, 18353.8614334134 
684, 18197.2192090033 
685, 17771.6082651502 
686, 17021.1615740872 
687, 16011.6692109896 
688, 14987.8508376817 
689, 14565.3422447091 
690, 14875.6137116156 
691, 15636.9498139044 
692, 16322.4713962768 
693, 16913.0705188392 
694, 17335.8773751152 
695, 17591.2621875332 
696, 17775.4291017235 
697, 17940.3722181503 
698, 18054.3033321496 
699, 18076.3243447896 
700, 18026.6696832648 
701, 17980.832313469 
702, 17985.7374808057 
703, 18063.3133466209 
704, 18220.0575302038 
705, 18401.9385383759 
706, 18556.5531077553 
707, 18645.9080716188 
708, 18723.732429244 
709, 18794.4954915467 
710, 18852.8882380947 
711, 18908.870886602 
712, 18947.6939422638 
713, 18959.6244270025 
714, 18931.269155064 
715, 18818.4311203766 
716, 18539.9766666227 
717, 18060.7173005474 
718, 17409.7828874895 
719, 16873.4351307579 
720, 16680.6389164843 
721, 16915.3484625512 
722, 17398.4590474863 
723, 17728.7819362959 
724, 17770.2946651189 
725, 17600.0102414222 
726, 17555.911857684 
727, 17609.5534567579 
728, 17695.8494471374 
729, 17753.6424248712 
730, 17883.4563080319 
731, 18114.8816061505 
732, 18436.472281418 
733, 18793.3462454405 
734, 19103.6303739146 
735, 19304.7735900398 
736, 19369.7505553641 
737, 19361.1622371965 
738, 19342.7175348552 
739, 19329.1387270875 
740, 19296.2366155283 
741, 19293.7526023267 
742, 19329.454539835 
743, 19396.8013034598 
744, 19480.5176477964 
745, 19537.4801973727 
746, 19561.7280185735 
747, 19560.6135710956 
748, 19538.7726745246 
749, 19476.4602634206 
750, 19387.7837009302 
751, 19309.3265130345 
752, 19270.2524757818 
753, 19259.1630070819 
754, 19255.1179556988 
755, 19231.2002313708 
756, 19135.0526052501 
757, 18730.687620573 
758, 17640.5612502285 
759, 15224.9845561268 
760, 11677.987692933 
761, 8203.05117622949 
762, 6251.94962540207 
763, 6231.19517872059 
764, 7246.49487799088 
765, 8843.81297297162 
766, 10969.6652804248 
767, 13290.1469228437 
768, 15305.3846004201 
769, 16707.6338481255 
770, 17493.3582946231 
771, 17881.7901681976 
772, 18033.6145932654 
773, 18070.9442625018 
774, 18060.8172321228 
775, 18016.2264907633 
776, 17956.7597584356 
777, 17895.6898270162 
778, 17816.9570600521 
779, 17724.0346973481 
780, 17630.8255787554 
781, 17555.3451385098 
782, 17474.0447730558 
783, 17377.3214611496 
784, 17266.5143154161 
785, 17155.7106721573 
786, 17043.6069464286 
787, 16912.66169016 
788, 16748.950542191 
789, 16558.8064353455 
790, 16359.6037586305 
791, 16160.2541150543 
792, 15966.2245584305 
793, 15784.3385493754 
794, 15636.7235168905 
795, 15537.0542412049 
796, 15485.4782412948 
797, 15443.7883423648 
798, 15379.2423437076 
799, 15274.6162258322 
800, 15132.2291630944 
801, 14972.6525483837 
802, 14824.2305601448 
803, 14700.6923965518 
804, 14581.5288983015 
805, 14481.281048252 
806, 14390.7113458396 
807, 14289.3329734265 
808, 14150.3196762497 
809, 13978.2681650052 
810, 13784.0323198689 
811, 13574.3950261951 
812, 13317.5610938442 
813, 12980.3029705001 
814, 12560.4659423934 
815, 12092.3800763842 
816, 11663.6834826886 
817, 11335.3485407332 
818, 11143.7134750555 
819, 11097.3472882701 
820, 11099.8259836265 
821, 11073.862859067 
822, 10987.9945697225 
823, 10889.556104344 
824, 10826.1396104609 
825, 10844.0167532537 
826, 10933.1780944046 
827, 10919.9474140542 
828, 10801.4176862752 
829, 10637.7190362786 
830, 10513.3778778908 
831, 10437.1141272068 
832, 10385.6169016179 
833, 10346.3752062568 
834, 10319.5302426325 
835, 10312.0303325966 
836, 10313.2383650859 
837, 10303.645853599 
838, 10258.8189315075 
839, 10186.9423936302 
840, 10098.7078793688 
841, 10001.8471947732 
842, 9897.18757641319 
843, 9788.63677971789 
844, 9681.09958369881 
845, 9577.12223649926 
846, 9476.3952262559 
847, 9349.82010994984 
848, 9194.50214180231 
849, 9020.58040536034 
850, 8846.24797885369 
851, 8644.22694235038 
852, 8434.30509659745 
853, 8256.09377289004 
854, 8125.24292487626 
855, 8020.40209662057 
856, 7969.54022628426 
857, 8015.02111776234 
858, 8092.07851979994 
859, 8106.86570116591 
860, 8042.74111503143 
861, 7952.07748858182 
862, 7844.13776443811 
863, 7705.97339598503 
864, 7538.76974722465 
865, 7363.88065274761 
866, 7200.05728999199 
867, 7060.54944436892 
868, 6965.89631309044 
869, 6945.68795097372 
870, 6957.96532056378 
871, 6945.83811457014 
872, 6882.52477428288 
873, 6798.35039798202 
874, 6706.37707417804 
875, 6613.53115240901 
876, 6522.63004136084 
877, 6433.9584494076 
878, 6346.22206525982 
879, 6259.65576279691 
880, 6174.19441894569 
881, 6087.57391110517 
882, 6001.36354313582 
883, 5918.20043781894 
884, 5839.65444761041 
885, 5763.44835679105 
886, 5683.39335656534 
887, 5598.53368798625 
888, 5511.79810481634 
889, 5430.61836123826 
890, 5347.28250086213 
891, 5253.37862016808 
892, 5141.06565576974 
893, 5005.71818539422 
894, 4846.13059180149 
895, 4668.22707387675 
896, 4482.32982598819 
897, 4296.48197372113 
898, 4121.94004017788 
899, 3978.24177131364 
900, 3883.52594498174 
901, 3828.47733161934 
902, 3806.23745380353 
903, 3800.68897298522 
904, 3791.58773171207 
905, 3770.40096095525 
906, 3730.6279436831 
907, 3662.14650941563 
908, 3559.71412998423 
909, 3453.34487057443 
910, 3363.14987094213 
911, 3297.37444599505 
912, 3252.52279765261 
913, 3213.8936445735 
914, 3178.37916777993 
915, 3144.48075483075 
916, 3113.01033370147 
917, 3094.03527141076 
918, 3080.52535635304 
919, 3068.28138155788 
920, 3055.95176971021 
921, 3039.61980146567 
922, 3015.82417549528 
923, 2977.90785938052 
924, 2918.94910928606 
925, 2842.30604021551 
926, 2748.41841387801 
927, 2634.57683468444 
928, 2496.97719168011 
929, 2336.54590836803 
930, 2156.66672486364 
931, 1966.55034736369 
932, 1780.69543972767 
933, 1618.24007041354 
934, 1489.60818075621 
935, 1403.28154004555 
936, 1361.91763028488 
937, 1353.17135233102 
938, 1366.16742725191 
939, 1386.00048912523 
940, 1400.76061201535 
941, 1416.51237721487 
942, 1422.4307366719 
943, 1410.96021537402 
944, 1380.79353750671 
945, 1341.16919158518 
946, 1308.68725149463 
947, 1289.70568988721 
948, 1282.82775508831 
949, 1280.93353641403 
950, 1279.05976856128 
951, 1275.59498165994 
952, 1270.71778949022 
953, 1264.945399119 
954, 1257.99523557238 
955, 1250.90484147879 
956, 1245.43301941887 
957, 1243.72633814873 
958, 1241.94365295125 
959, 1240.27106776093 
960, 1240.52597641663 
961, 1244.83674141403 
962, 1245.22969934052 
963, 1248.46847157413 
964, 1256.17365407638 
965, 1261.17887813333 
966, 1265.66639977489 
967, 1266.21353954966 
968, 1262.10265938367 
969, 1255.63357265656 
970, 1247.68508595044 
971, 1236.02186427152 
972, 1218.98717745357 
973, 1196.24911035544 
974, 1169.43226265311 
975, 1142.12295423964 
976, 1116.17348688399 
977, 1092.64781627888 
978, 1073.91928905213 
979, 1057.3598712509 
980, 1042.8169205468 
981, 1030.17916684885 
982, 1017.41886117894 
983, 1002.67712331612 
984, 986.93404471368 
985, 971.006576520639 
986, 954.034608382848 
987, 934.697580374588 
988, 914.709876136231 
989, 895.309120146374 
990, 876.257960813774 
991, 855.649202872544 
992, 835.287215778545 
993, 814.778539054242 
994, 792.790435890208 
995, 772.475577796361 
996, 753.189305459116 
997, 733.761521449793 
998, 713.33602594247 
999, 692.335806600111 
1000, 672.452498024848 
1001, 4230.34221698829 
1002, 4208.65242221358 
1003, 4183.27807612026 
1004, 4160.21710992584 
1005, 4145.70310454373 
1006, 4142.96095389786 
1007, 4141.70382334696 
1008, 4141.03544505248 
1009, 4143.16274987594 
1010, 4143.43697022099 
1011, 4150.2288328372 
1012, 4163.49914277644 
1013, 4178.31081361265 
1014, 4189.03490296054 
1015, 4201.13916441466 
1016, 4210.62634927151 
1017, 4222.2030349073 
1018, 4238.81988764144 
1019, 4253.60058601409 
1020, 4269.74589044732 
1021, 4292.65441442918 
1022, 4313.14968019901 
1023, 4333.66643568641 
1024, 4357.60909829526 
1025, 4385.59001545856 
1026, 4405.77734170219 
1027, 4431.08372876896 
1028, 4459.82972640244 
1029, 4475.46865797215 
1030, 4494.42450983032 
1031, 4518.90040722162 
1032, 4535.61465274563 
1033, 4558.72272817602 
1034, 4584.53850765912 
1035, 4606.6527415774 
1036, 4622.9145735461 
1037, 4648.16346673528 
1038, 4674.09193397204 
1039, 4689.17127554057 
1040, 4705.44002157987 
1041, 4720.71896726513 
1042, 4732.48066038122 
1043, 4751.65456189813 
1044, 4773.20020264362 
1045, 4791.87179131951 
1046, 4807.99220923462 
1047, 4827.55671983606 
1048, 4847.19633363927 
1049, 4872.1514608606 
1050, 4896.71712845425 
1051, 4921.54232374397 
1052, 4949.35331810572 
1053, 4971.77463563434 
1054, 4991.96235308449 
1055, 5016.28547953099 
1056, 5037.30417983491 
1057, 5062.39842901546 
1058, 5095.08406296252 
1059, 5134.05083354547 
1060, 5174.944742048 
1061, 5221.40229864153 
1062, 5267.48947348581 
1063, 5315.77114885783 
1064, 5363.81317673002 
1065, 5413.7836257675 
1066, 5473.99002680557 
1067, 5534.69989331091 
1068, 5603.60931689324 
1069, 5679.36347367514 
1070, 5750.85216508534 
1071, 5829.20164080898 
1072, 5908.26910876827 
1073, 5991.49419767641 
1074, 6088.55124893849 
1075, 6169.19596135445 
1076, 6248.00487719967 
1077, 6318.63111814008 
1078, 6375.5760595837 
1079, 6426.14532241009 
1080, 6475.13810153002 
1081, 6522.2299393634 
1082, 6566.30149772547 
1083, 6605.63802589791 
1084, 6642.88562029126 
1085, 6674.2666722736 
1086, 6702.16152212838 
1087, 6725.01701366845 
1088, 6747.22929972454 
1089, 6771.28467062957 
1090, 6782.17965563251 
1091, 6789.56166199808 
1092, 6786.60376701869 
1093, 6765.57427863708 
1094, 6743.02384560989 
1095, 6716.30996979213 
1096, 6686.00238739645 
1097, 6657.9928443585 
1098, 6625.7757146683 
1099, 6596.53085514551 
1100, 6569.15622765053 
1101, 6538.19305904589 
1102, 6509.99439477461 
1103, 6476.33181507259 
1104, 6442.96180125905 
1105, 6399.9100262132 
1106, 6353.81881379687 
1107, 6284.69596086662 
1108, 6190.46986620602 
1109, 6074.01610737054 
1110, 5913.64318832042 
1111, 5721.82187699079 
1112, 5500.30398403435 
1113, 5231.08030528722 
1114, 4965.35258447863 
1115, 4658.19128817532 
1116, 4383.34426388541 
1117, 4088.11976508019 
1118, 3839.03694476808 
1119, 3613.50071405468 
1120, 3405.65909161336 
1121, 3234.72116580733 
1122, 3092.91305834533 
1123, 2985.85831568237 
1124, 2908.24925463126 
1125, 2868.3596389033 
1126, 2876.91031144778 
1127, 2888.54876444326 
1128, 2934.74969496424 
1129, 2982.30124304362 
1130, 3050.57966341534 
1131, 3112.99188207774 
1132, 3179.4842318192 
1133, 3256.1312330884 
1134, 3333.02061697047 
1135, 3416.27213303722 
1136, 3538.11119969312 
1137, 3663.59563422291 
1138, 3786.77359325626 
1139, 3899.73557136924 
1140, 3970.11352354789 
1141, 4015.14475934778 
1142, 4030.69266155731 
1143, 3999.43043214473 
1144, 3979.13016054483 
1145, 3905.598863384 
1146, 3891.58402761131 
1147, 3875.87230682525 
1148, 3910.03375902799 
1149, 3988.82767277032 
1150, 4092.52824206675 
1151, 4228.77066191393 
1152, 4378.38610128476 
1153, 4538.9748363557 
1154, 4726.45158744625 
1155, 4900.0878420171 
1156, 5087.90831403584 
1157, 5259.11326689841 
1158, 5427.06455969683 
1159, 5583.05373944225 
1160, 5740.91224404225 
1161, 5871.9778089343 
1162, 5985.57124559672 
1163, 6087.63777199715 
1164, 6169.91674346451 
1165, 6240.69434439522 
1166, 6305.73747497509 
1167, 6352.2449509129 
1168, 6382.77955938113 
1169, 6396.20951647728 
1170, 6397.69062756361 
1171, 6381.38049474046 
1172, 6358.93568331397 
1173, 6322.21680645932 
1174, 6281.52233870007 
1175, 6229.30249725911 
1176, 6175.06938286275 
