Wavelength,0212202100135.asd
350, 2994.3324803116 
351, 3150.79971256448 
352, 3296.17414564585 
353, 3417.46627520976 
354, 3537.01283727234 
355, 3662.99581714992 
356, 3796.01374689403 
357, 3926.68313585274 
358, 4062.95441667996 
359, 4209.04879958472 
360, 4370.12513200373 
361, 4565.69072265978 
362, 4790.4914706776 
363, 5034.27794944714 
364, 5284.28947670577 
365, 5536.03513136449 
366, 5776.43526541955 
367, 5988.2661878943 
368, 6150.24894331645 
369, 6246.03821428684 
370, 6281.59284705301 
371, 6275.87567619962 
372, 6252.31516509224 
373, 6244.69304821343 
374, 6257.79402649074 
375, 6275.42776147652 
376, 6293.33433579361 
377, 6304.93541444367 
378, 6295.38542989426 
379, 6239.8287885606 
380, 6168.44080361745 
381, 6087.03134338423 
382, 5993.82472949465 
383, 5881.43011402317 
384, 5766.0991368285 
385, 5685.97447466135 
386, 5687.90947733651 
387, 5806.0714445187 
388, 5977.48977898259 
389, 6128.78326239382 
390, 6193.93097211656 
391, 6266.37280206962 
392, 6338.30372629614 
393, 6395.53177638937 
394, 6444.5366913889 
395, 6577.77753227573 
396, 6842.40597431201 
397, 7258.72252407115 
398, 7834.99529997537 
399, 8490.0223849119 
400, 9163.72120250263 
401, 9821.00763046948 
402, 10445.6620380904 
403, 10961.7924029591 
404, 11336.7726497714 
405, 11628.3775227129 
406, 11859.0596179537 
407, 12065.6217057825 
408, 12292.4427088665 
409, 12598.5860498987 
410, 12966.9566616306 
411, 13374.4561541726 
412, 13795.6091278939 
413, 14216.0087850286 
414, 14633.6161069888 
415, 15036.4135777519 
416, 15389.9179571532 
417, 15725.9736959259 
418, 16070.2299813031 
419, 16429.1880229205 
420, 16742.178815798 
421, 17057.5820393267 
422, 17401.1243634925 
423, 17771.9851664485 
424, 18113.969903662 
425, 18385.4561198916 
426, 18548.8544820714 
427, 18564.3089959673 
428, 18497.5778162468 
429, 18514.3756680248 
430, 18748.0681788731 
431, 19088.9232582506 
432, 19535.5755657257 
433, 20190.0908539985 
434, 21185.397543533 
435, 22238.1817982918 
436, 23044.4142434778 
437, 23543.3429662161 
438, 24071.217302501 
439, 24614.5619981941 
440, 25127.933913161 
441, 25592.8560056497 
442, 26191.6549861447 
443, 26822.6867251595 
444, 27403.3723011836 
445, 27879.6227203614 
446, 28263.5761869511 
447, 28607.9486651595 
448, 28972.5351155286 
449, 29427.8258496715 
450, 29811.5686762727 
451, 30017.4951101456 
452, 30008.1649921393 
453, 29935.6846967996 
454, 29774.2520794819 
455, 29567.2173068041 
456, 29421.3810412855 
457, 29390.6802732879 
458, 29404.5326496598 
459, 29388.744085135 
460, 29314.6923107594 
461, 29204.1680048715 
462, 29083.2349125907 
463, 28963.5891886563 
464, 28777.1611943064 
465, 28484.6980119559 
466, 28120.8035236029 
467, 27790.8044741473 
468, 27513.7073819522 
469, 27306.3791568484 
470, 27177.9286489098 
471, 27138.5991646705 
472, 27112.4140953279 
473, 27107.5360447299 
474, 27155.6382031764 
475, 27153.1445749944 
476, 27127.9173956882 
477, 27113.060002886 
478, 27132.0686309022 
479, 27223.6535682757 
480, 27348.6458580836 
481, 27437.6301418298 
482, 27416.5584388278 
483, 27214.3944758458 
484, 26787.7222094483 
485, 26148.6999354223 
486, 25529.8101842151 
487, 25093.7726504918 
488, 24969.38307874 
489, 25264.8786831528 
490, 25732.7801190158 
491, 26119.3459667203 
492, 26259.8055090883 
493, 26311.7264442827 
494, 26388.61901767 
495, 26541.4686745878 
496, 26750.5834115932 
497, 26816.7108814397 
498, 26744.5062484789 
499, 26579.4996044167 
500, 26354.6262113693 
501, 26184.4149374745 
502, 26118.2766845601 
503, 26178.1269102744 
504, 26422.0539496347 
505, 26762.6728797963 
506, 27110.5215576542 
507, 27389.1042991363 
508, 27602.8912861092 
509, 27771.2226719062 
510, 27927.7067454073 
511, 28138.6516710964 
512, 28285.9199135303 
513, 28316.0049390102 
514, 28216.7882579328 
515, 27986.7772126015 
516, 27676.6126212025 
517, 27373.4380722026 
518, 27196.7387771874 
519, 27431.0880799084 
520, 28097.803357772 
521, 29033.9245502825 
522, 29817.781425366 
523, 30401.2327858919 
524, 30810.8900972481 
525, 31122.6587233513 
526, 31254.7733211921 
527, 31306.1064955767 
528, 31471.481401944 
529, 32106.6767963237 
530, 32930.363916613 
531, 33623.898066593 
532, 33929.1086345447 
533, 34033.5568501693 
534, 34189.7088723334 
535, 34533.6555869389 
536, 35055.862693504 
537, 35432.4887046219 
538, 35607.5694152945 
539, 35630.8105340278 
540, 35618.3755901753 
541, 35650.4567693061 
542, 35834.4686821453 
543, 36253.0013879289 
544, 36733.8299954035 
545, 37155.265257436 
546, 37449.6860519163 
547, 37616.3939762818 
548, 37730.1909327931 
549, 37864.2238411552 
550, 38061.5659548098 
551, 38265.9239368937 
552, 38423.6104787314 
553, 38538.7668329113 
554, 38660.1734174294 
555, 38753.9331298034 
556, 38722.6829101914 
557, 38511.7583404791 
558, 38156.1515722341 
559, 37852.8774856912 
560, 37716.7549638187 
561, 37787.3610549002 
562, 37960.6759526845 
563, 38061.9860337825 
564, 38006.0517904563 
565, 37821.4377094623 
566, 37560.8537461272 
567, 37295.5220212813 
568, 37068.4146922446 
569, 36836.848913644 
570, 36536.1578473354 
571, 36252.376479054 
572, 36151.3226957893 
573, 36187.3278879033 
574, 36181.564987547 
575, 36020.5421672345 
576, 35720.57718222 
577, 35444.5989875056 
578, 35300.4582163279 
579, 35346.1769431591 
580, 35534.3361550725 
581, 35860.3152305953 
582, 36254.818019442 
583, 36589.5458667303 
584, 36800.9561918776 
585, 36797.0443658917 
586, 36565.7322320124 
587, 36275.406791647 
588, 35910.5425720098 
589, 35417.3182440873 
590, 34803.6265130907 
591, 34584.7923521268 
592, 34748.8884906356 
593, 35053.0621768203 
594, 35039.4208853119 
595, 34861.1378183727 
596, 34610.3008022735 
597, 34350.7516515311 
598, 34067.2717287287 
599, 33718.2562759105 
600, 33334.1998400038 
601, 32996.0116269622 
602, 32736.770753143 
603, 32598.490182216 
604, 32577.6007882745 
605, 32606.0993050451 
606, 32533.2052585365 
607, 32350.961078791 
608, 32116.4967379198 
609, 31885.3027189988 
610, 31666.3706984531 
611, 31469.8167262641 
612, 31305.910069761 
613, 31131.760138867 
614, 30925.7406180229 
615, 30699.5613749105 
616, 30525.8536764463 
617, 30416.1998983777 
618, 30413.2484135181 
619, 30542.7544488108 
620, 30680.0588022674 
621, 30695.2794743128 
622, 30543.6639465903 
623, 30285.236725862 
624, 29993.5880182681 
625, 29716.6086875033 
626, 29478.1457227599 
627, 29266.3764120134 
628, 29054.5645906585 
629, 28851.5594418942 
630, 28699.3370167509 
631, 28705.7201261092 
632, 28804.5030137711 
633, 28930.7696980662 
634, 29065.4785231089 
635, 29167.9655848421 
636, 29237.5417398511 
637, 29283.7755096486 
638, 29294.9986005719 
639, 29246.4175790531 
640, 29115.1706071699 
641, 28892.956917221 
642, 28719.4198109671 
643, 28615.1088609872 
644, 28546.7249203063 
645, 28424.1614344965 
646, 28234.3947009275 
647, 27997.9112620399 
648, 27758.1302277765 
649, 27563.0471052007 
650, 27412.6711017822 
651, 27332.2680351327 
652, 27364.784233085 
653, 27300.811891668 
654, 26994.7760672032 
655, 26421.3773480364 
656, 25753.2606151549 
657, 25269.9316284319 
658, 25272.8097344669 
659, 25917.0636499323 
660, 26574.8188359556 
661, 26950.7391485472 
662, 27024.1643970043 
663, 27059.4411324641 
664, 27029.8818625744 
665, 26983.5642574561 
666, 26962.4899402059 
667, 26965.7902232648 
668, 26953.5643019548 
669, 26925.1265832943 
670, 26897.6678920771 
671, 26838.0415158621 
672, 26767.6212604765 
673, 26719.6034591633 
674, 26734.2066132989 
675, 26765.1457589509 
676, 26786.5091881373 
677, 26789.0256403862 
678, 26798.4281167098 
679, 26798.7295567015 
680, 26788.379471132 
681, 26772.8278028731 
682, 26746.5362488195 
683, 26677.7908185117 
684, 26450.9179007604 
685, 25841.3951568183 
686, 24767.6130845339 
687, 23325.4523823119 
688, 21865.7264929199 
689, 21263.7753732176 
690, 21704.7782833263 
691, 22784.9561293635 
692, 23752.4350676529 
693, 24589.3882822695 
694, 25189.0125492561 
695, 25547.1056176734 
696, 25795.9703296059 
697, 26012.4089820814 
698, 26157.0100180118 
699, 26176.6026728215 
700, 26100.3006795347 
701, 26023.6959393358 
702, 26013.0964889389 
703, 26106.4328574126 
704, 26311.6712634962 
705, 26552.2138694003 
706, 26755.1324164045 
707, 26869.8602972362 
708, 26960.7639256673 
709, 27040.4991545283 
710, 27109.0025776852 
711, 27174.6328289433 
712, 27216.044793559 
713, 27219.4582783453 
714, 27167.2063280707 
715, 27003.7315159696 
716, 26612.7760868714 
717, 25942.870043849 
718, 25034.5398796991 
719, 24278.8697569055 
720, 23996.817869962 
721, 24309.0703652737 
722, 24965.8875811069 
723, 25417.5934211623 
724, 25473.6511932177 
725, 25234.8940030419 
726, 25170.013054108 
727, 25236.0562390803 
728, 25342.6619081624 
729, 25408.8513729796 
730, 25577.7724367978 
731, 25886.3806053319 
732, 26315.5028653606 
733, 26791.6821296467 
734, 27200.4295180495 
735, 27458.4066602994 
736, 27531.9325827692 
737, 27505.6573371775 
738, 27461.3075778971 
739, 27419.5287660896 
740, 27352.8862840728 
741, 27329.8603032428 
742, 27360.0737287815 
743, 27435.0200593641 
744, 27537.5187590289 
745, 27603.256305988 
746, 27622.8196457153 
747, 27606.0052029777 
748, 27557.4256428979 
749, 27452.5983599522 
750, 27311.7779733268 
751, 27184.796687867 
752, 27110.6221473896 
753, 27076.4994845445 
754, 27054.5215220236 
755, 27005.5007847437 
756, 26853.4260262133 
757, 26272.3002749688 
758, 24741.339127773 
759, 21376.9088073556 
760, 16445.3713056782 
761, 11620.3892482122 
762, 8921.44316992674 
763, 8913.33237872942 
764, 10337.3735100771 
765, 12548.3334491784 
766, 15462.5467004197 
767, 18628.1456927304 
768, 21364.9658690241 
769, 23255.9208801663 
770, 24300.063568147 
771, 24800.165189739 
772, 24979.82353792 
773, 25007.0786944016 
774, 24967.3703101141 
775, 24878.8594856047 
776, 24772.6840241665 
777, 24671.0814877241 
778, 24544.3564999471 
779, 24398.3337199935 
780, 24252.4109438715 
781, 24130.6126883076 
782, 24000.3308542902 
783, 23849.3885168745 
784, 23680.8885332491 
785, 23515.4353730011 
786, 23350.4365171257 
787, 23161.809913142 
788, 22930.1845651033 
789, 22663.0434243607 
790, 22383.0893748754 
791, 22101.5748467088 
792, 21825.4009909836 
793, 21563.6403402337 
794, 21352.4183721858 
795, 21208.7869755776 
796, 21126.8246848597 
797, 21065.7084107303 
798, 20974.530594174 
799, 20825.7865198187 
800, 20624.69450575 
801, 20404.7229962717 
802, 20201.0698812072 
803, 20029.3889611657 
804, 19864.6248703011 
805, 19721.6002745758 
806, 19590.7869197823 
807, 19449.3131263812 
808, 19262.0846596419 
809, 19029.1324625232 
810, 18767.398394547 
811, 18492.0954161653 
812, 18156.9652472637 
813, 17714.6939930294 
814, 17161.0775920857 
815, 16541.9910603715 
816, 15971.9693499344 
817, 15530.3849993409 
818, 15266.6038690504 
819, 15196.6526432622 
820, 15190.7001517803 
821, 15151.1999713533 
822, 15038.3180257486 
823, 14906.5326523739 
824, 14820.1398271136 
825, 14841.3387785088 
826, 14957.4874061606 
827, 14937.7378548756 
828, 14777.5954243464 
829, 14555.5505963965 
830, 14382.9046363213 
831, 14274.0715579477 
832, 14198.3418070677 
833, 14138.9245831008 
834, 14095.5713088391 
835, 14076.65760245 
836, 14070.560814535 
837, 14051.909692347 
838, 13986.1045383039 
839, 13884.4641620238 
840, 13759.3229154688 
841, 13620.2096715652 
842, 13469.9033247799 
843, 13314.7757107771 
844, 13161.47284378 
845, 13013.2102531139 
846, 12869.6545382498 
847, 12691.7025574745 
848, 12474.6156394941 
849, 12231.4192608797 
850, 11987.8853065892 
851, 11705.3863669652 
852, 11413.1839997351 
853, 11167.3545167012 
854, 10982.3318390946 
855, 10829.6093769208 
856, 10749.6218655102 
857, 10802.5659943647 
858, 10896.9948581821 
859, 10909.3744841124 
860, 10816.565473669 
861, 10685.3859608722 
862, 10530.6977154475 
863, 10335.9687680995 
864, 10103.2930675745 
865, 9861.41679741515 
866, 9632.64585309349 
867, 9437.54784358131 
868, 9304.65786951235 
869, 9270.73014952166 
870, 9276.65719693304 
871, 9252.2327036477 
872, 9163.16650392847 
873, 9040.5042112925 
874, 8910.08261541637 
875, 8780.81099840704 
876, 8653.9655243725 
877, 8527.68182727133 
878, 8406.62032224577 
879, 8287.26014670758 
880, 8165.90908193114 
881, 8045.71182870309 
882, 7924.70743515418 
883, 7809.9598577767 
884, 7706.13582322506 
885, 7601.09204202805 
886, 7490.38162577425 
887, 7374.0542597042 
888, 7256.03712001308 
889, 7145.09292080758 
890, 7034.49262607348 
891, 6911.75980514244 
892, 6763.54733057894 
893, 6584.5187825883 
894, 6377.37753937137 
895, 6149.10232244467 
896, 5909.49600290473 
897, 5666.41739030355 
898, 5440.08592283783 
899, 5252.95047520643 
900, 5123.21976046474 
901, 5050.30624321026 
902, 5019.51097569389 
903, 5008.56171430357 
904, 4993.55474243103 
905, 4965.4276126882 
906, 4910.40555613688 
907, 4818.16976223983 
908, 4688.22632333313 
909, 4549.45056234229 
910, 4432.29117984264 
911, 4348.08539440841 
912, 4289.92031848334 
913, 4240.21133263721 
914, 4193.92004591759 
915, 4148.61050307185 
916, 4105.4907402857 
917, 4078.01051753981 
918, 4058.74095084909 
919, 4041.40636122596 
920, 4022.17892198452 
921, 3998.368121549 
922, 3964.93346643122 
923, 3913.80766070138 
924, 3836.95842707556 
925, 3736.18580940194 
926, 3615.26213598823 
927, 3469.81194769083 
928, 3291.91326102596 
929, 3085.81352913318 
930, 2853.47810829204 
931, 2607.43174010732 
932, 2368.17945691997 
933, 2156.67745556599 
934, 1989.44104887307 
935, 1876.07712864362 
936, 1817.86906727056 
937, 1806.11420090452 
938, 1821.08533753802 
939, 1845.73017551111 
940, 1868.18373510319 
941, 1886.90027390792 
942, 1893.05114260895 
943, 1876.74863800588 
944, 1835.00096640004 
945, 1783.92130136901 
946, 1740.48728666226 
947, 1714.05821907898 
948, 1704.36392826184 
949, 1697.51393642118 
950, 1693.33381208889 
951, 1689.78796011259 
952, 1684.34500473606 
953, 1673.7991910497 
954, 1662.27690406961 
955, 1652.66252319701 
956, 1645.67433498395 
957, 1638.80830512789 
958, 1634.49287860627 
959, 1633.55266659404 
960, 1635.0216955507 
961, 1636.10777355138 
962, 1636.33151520071 
963, 1638.61895995838 
964, 1643.39776571883 
965, 1647.45878676731 
966, 1650.32567210445 
967, 1649.85131674949 
968, 1644.25576099213 
969, 1633.08091355724 
970, 1620.36543324985 
971, 1603.54515957748 
972, 1580.49757433937 
973, 1550.68987235001 
974, 1516.16024880559 
975, 1480.72979737169 
976, 1445.88066491385 
977, 1413.04339127281 
978, 1388.33737797473 
979, 1366.92676565863 
980, 1347.19901167313 
981, 1328.88613884899 
982, 1312.04336985927 
983, 1292.36507664637 
984, 1270.2476912669 
985, 1247.7900282373 
986, 1226.94474966917 
987, 1201.51707615758 
988, 1175.16559039545 
989, 1149.40355687673 
990, 1121.93929264027 
991, 1095.62140132231 
992, 1069.7627228223 
993, 1043.64741224675 
994, 1016.93340699296 
995, 989.473319076096 
996, 963.034408139704 
997, 937.39796358823 
998, 911.6764906078 
999, 886.211721422798 
1000, 860.350894009528 
1001, 5387.44067985226 
1002, 5360.96427254761 
1003, 5336.06085481807 
1004, 5315.4981773296 
1005, 5299.42400040232 
1006, 5284.92993353269 
1007, 5276.94835534018 
1008, 5282.63663234994 
1009, 5289.24055619362 
1010, 5304.91216085015 
1011, 5313.64347834689 
1012, 5322.20929202232 
1013, 5332.13167583168 
1014, 5344.12950878561 
1015, 5358.99399119549 
1016, 5378.76359419487 
1017, 5398.15774286143 
1018, 5413.16176935863 
1019, 5428.86314524192 
1020, 5448.97859451351 
1021, 5475.50974285834 
1022, 5503.46269843417 
1023, 5535.56139305854 
1024, 5564.6631791481 
1025, 5598.81703684612 
1026, 5632.70365344136 
1027, 5654.21691189095 
1028, 5682.22210510905 
1029, 5707.61121874775 
1030, 5725.88691070681 
1031, 5755.88839866919 
1032, 5785.28798755707 
1033, 5815.73591804343 
1034, 5847.94737696078 
1035, 5877.3564368021 
1036, 5904.85050304565 
1037, 5931.35849336051 
1038, 5954.81409875505 
1039, 5980.12306286774 
1040, 5997.19968756789 
1041, 6013.78507300397 
1042, 6036.82712515292 
1043, 6053.60414372777 
1044, 6076.47633932913 
1045, 6103.7118317782 
1046, 6123.62305414174 
1047, 6147.63807431783 
1048, 6172.93346347612 
1049, 6201.13593409167 
1050, 6227.93490811651 
1051, 6261.69156115831 
1052, 6296.63372458047 
1053, 6326.00882398469 
1054, 6358.18261829448 
1055, 6391.34184703186 
1056, 6422.42444894779 
1057, 6457.11501686653 
1058, 6496.95844142935 
1059, 6541.11906621945 
1060, 6591.7041628335 
1061, 6650.90665474882 
1062, 6711.66399337341 
1063, 6775.98026850785 
1064, 6845.48256932019 
1065, 6921.46409250935 
1066, 6996.47926862917 
1067, 7071.28246050008 
1068, 7149.8558168967 
1069, 7231.74911177039 
1070, 7322.58035434456 
1071, 7432.9512059591 
1072, 7546.33687917457 
1073, 7653.95642298857 
1074, 7770.80990687221 
1075, 7870.63133580103 
1076, 7961.00423919954 
1077, 8046.16070257159 
1078, 8123.08423104073 
1079, 8194.5742312591 
1080, 8259.096610723 
1081, 8320.04875740771 
1082, 8370.1377548929 
1083, 8413.29909337267 
1084, 8462.00087108577 
1085, 8500.89642649287 
1086, 8537.95242704824 
1087, 8580.18589247875 
1088, 8609.51197979373 
1089, 8630.55028079217 
1090, 8643.81082459726 
1091, 8652.02534203958 
1092, 8648.5585225154 
1093, 8627.12769545734 
1094, 8600.5990661143 
1095, 8574.68495394703 
1096, 8541.20920427918 
1097, 8504.31123494959 
1098, 8469.14502992813 
1099, 8432.43983883871 
1100, 8384.66544827042 
1101, 8347.5716707138 
1102, 8324.18204589716 
1103, 8285.11161428715 
1104, 8247.44083763404 
1105, 8200.00150954854 
1106, 8138.01394859214 
1107, 8057.4098398147 
1108, 7942.59615807369 
1109, 7791.16688420069 
1110, 7587.77380121862 
1111, 7343.45327950201 
1112, 7063.9038580027 
1113, 6730.20668262499 
1114, 6395.21173168248 
1115, 6003.93458320623 
1116, 5654.10860334926 
1117, 5275.28498924165 
1118, 4957.39293494999 
1119, 4667.40701164193 
1120, 4408.96905247726 
1121, 4193.75762444746 
1122, 4018.47249270489 
1123, 3892.9862794329 
1124, 3808.08257087365 
1125, 3765.6353204781 
1126, 3786.59031440386 
1127, 3806.49080515145 
1128, 3865.38885413929 
1129, 3922.24514051853 
1130, 3999.98946697234 
1131, 4075.62440568449 
1132, 4150.85788849522 
1133, 4246.59181350406 
1134, 4349.53046185907 
1135, 4461.9712756671 
1136, 4623.06397111136 
1137, 4790.38818546509 
1138, 4949.8981802643 
1139, 5096.04169123878 
1140, 5185.66572687047 
1141, 5238.52886951769 
1142, 5257.73119385867 
1143, 5215.83438350344 
1144, 5190.38216808827 
1145, 5101.82905854307 
1146, 5084.85348125944 
1147, 5066.41345808653 
1148, 5110.02079784592 
1149, 5208.94587175637 
1150, 5333.3553219326 
1151, 5510.72892759783 
1152, 5705.76505374199 
1153, 5907.74948905457 
1154, 6144.41719705623 
1155, 6362.78516739457 
1156, 6589.60377634228 
1157, 6803.66428998261 
1158, 7020.57595837591 
1159, 7219.57432631972 
1160, 7419.76529169031 
1161, 7589.08712749309 
1162, 7743.62559651505 
1163, 7873.28082728968 
1164, 7977.39737937075 
1165, 8059.15052241799 
1166, 8124.91355886757 
1167, 8174.35249725901 
1168, 8205.34675092915 
1169, 8216.50958162914 
1170, 8215.36347548209 
1171, 8196.07911534249 
1172, 8165.19662397353 
1173, 8115.01984818599 
1174, 8063.31769200287 
1175, 7998.1687799648 
1176, 7930.50791283668 
1177, 7856.42624348081 
1178, 7780.2619457417 
