Wavelength,0212202100114.asd
350, 2446.42469755313 
351, 2572.18254784345 
352, 2689.37696883289 
353, 2788.22906982034 
354, 2883.58432775918 
355, 2983.24758831219 
356, 3089.36793861157 
357, 3193.53406938166 
358, 3302.94011733665 
359, 3420.46378164757 
360, 3549.30469826406 
361, 3705.77365330889 
362, 3885.57703015601 
363, 4080.38837537906 
364, 4279.9780353612 
365, 4482.39594847455 
366, 4675.23018973091 
367, 4843.75244243736 
368, 4973.13409744386 
369, 5049.70420947823 
370, 5076.98789457758 
371, 5069.28695902593 
372, 5046.90590405585 
373, 5035.9837942876 
374, 5042.61456286094 
375, 5057.1450756807 
376, 5069.95961066292 
377, 5075.93896099402 
378, 5065.01611542124 
379, 5020.16539266595 
380, 4961.11965550964 
381, 4893.35568989155 
382, 4816.83914605622 
383, 4724.91671445307 
384, 4629.24072823698 
385, 4560.6900119185 
386, 4558.17832172049 
387, 4650.86086028168 
388, 4787.20826074469 
389, 4907.28851920301 
390, 4957.40039005309 
391, 5013.76325432277 
392, 5071.36560424978 
393, 5118.11718193917 
394, 5154.03801205104 
395, 5258.03422808394 
396, 5465.5090205624 
397, 5790.25836933493 
398, 6249.26447799186 
399, 6773.25724703276 
400, 7310.37775126693 
401, 7830.4636241323 
402, 8325.55824520835 
403, 8735.75805310235 
404, 9033.62427517114 
405, 9261.25726674905 
406, 9442.53399143829 
407, 9604.00686764767 
408, 9777.5961332432 
409, 10017.1457811441 
410, 10305.8851185104 
411, 10626.0687384371 
412, 10960.3761476721 
413, 11290.1993509354 
414, 11616.1565533088 
415, 11931.1784903694 
416, 12208.3853379327 
417, 12469.9593833604 
418, 12735.8823215363 
419, 13012.991174298 
420, 13259.0954287023 
421, 13505.330357816 
422, 13770.8921780646 
423, 14058.6982544448 
424, 14326.302243073 
425, 14538.3645017173 
426, 14663.8716748622 
427, 14673.0944043795 
428, 14616.529295673 
429, 14624.6462866047 
430, 14802.7087639486 
431, 15063.5884650262 
432, 15409.9877537615 
433, 15921.5071990263 
434, 16699.4719070134 
435, 17528.6104225922 
436, 18163.6331932777 
437, 18552.9727504856 
438, 18964.56662866 
439, 19389.6970121923 
440, 19790.4610081453 
441, 20150.0582278665 
442, 20614.743315347 
443, 21109.0239542262 
444, 21565.0710867145 
445, 21932.6324835353 
446, 22227.8831752277 
447, 22493.0374196665 
448, 22774.1301003855 
449, 23123.621483914 
450, 23421.1263864653 
451, 23582.1643671605 
452, 23573.1945098263 
453, 23509.7272129275 
454, 23376.6123981587 
455, 23208.9122521478 
456, 23087.7098076463 
457, 23056.443854157 
458, 23060.7780018301 
459, 23043.0466238946 
460, 22980.5741102244 
461, 22887.418321033 
462, 22785.8369555502 
463, 22687.9046994517 
464, 22537.2426600121 
465, 22305.117005616 
466, 22017.4032523489 
467, 21752.1483854196 
468, 21529.6522088531 
469, 21362.2292386417 
470, 21255.4733300563 
471, 21217.2811885946 
472, 21191.6750403457 
473, 21184.2799565197 
474, 21217.2402016145 
475, 21209.7414412797 
476, 21184.024617105 
477, 21167.0338332025 
478, 21178.8052887171 
479, 21246.273016334 
480, 21341.1132780504 
481, 21410.8077392107 
482, 21392.7710674457 
483, 21235.1850885674 
484, 20903.8528162381 
485, 20405.1783972067 
486, 19916.0759680034 
487, 19568.2011340269 
488, 19465.2158218463 
489, 19690.3118953806 
490, 20053.4161846509 
491, 20355.0207973659 
492, 20463.9112744849 
493, 20502.6007838815 
494, 20558.1215311226 
495, 20672.2343114115 
496, 20834.0348592269 
497, 20885.9342318722 
498, 20830.0483595165 
499, 20701.2298062818 
500, 20526.328171099 
501, 20392.4856265893 
502, 20337.5036878482 
503, 20379.2460744324 
504, 20567.9203293105 
505, 20833.9084018964 
506, 21105.7148082728 
507, 21322.2217611942 
508, 21486.452773247 
509, 21615.0171517953 
510, 21735.922664614 
511, 21902.3901706669 
512, 22018.0908213868 
513, 22041.0782729463 
514, 21963.9710164111 
515, 21786.6151543886 
516, 21547.6799502025 
517, 21313.1223365935 
518, 21172.8301432223 
519, 21348.6654706097 
520, 21863.1873362017 
521, 22594.0558975136 
522, 23205.291773522 
523, 23662.2312070692 
524, 23984.0564630648 
525, 24225.7411183221 
526, 24333.413403756 
527, 24377.8035282525 
528, 24505.4194141932 
529, 24994.4449417757 
530, 25638.7773167883 
531, 26186.9498993616 
532, 26428.7937828554 
533, 26510.2012957364 
534, 26633.2669956155 
535, 26905.2083329707 
536, 27314.7864238407 
537, 27610.9301405076 
538, 27750.6923239115 
539, 27772.8812413761 
540, 27766.8415002023 
541, 27794.1936130066 
542, 27938.5591050168 
543, 28265.0498563012 
544, 28642.2090660852 
545, 28974.4950154628 
546, 29208.3543290541 
547, 29342.9469592802 
548, 29434.9940676149 
549, 29541.8598074739 
550, 29697.8550572655 
551, 29858.3902237382 
552, 29982.4742094639 
553, 30074.3975039253 
554, 30173.1541023208 
555, 30250.3918441025 
556, 30228.7093263857 
557, 30065.4580599055 
558, 29791.1609337269 
559, 29555.2140511929 
560, 29448.7133899803 
561, 29505.8014105465 
562, 29643.1168309374 
563, 29722.8265479265 
564, 29679.2900770669 
565, 29538.3143201343 
566, 29334.3431540673 
567, 29126.8934108335 
568, 28952.8817067494 
569, 28771.8334217397 
570, 28538.1248113674 
571, 28318.0040471944 
572, 28237.1193749417 
573, 28265.2287306129 
574, 28263.0860264847 
575, 28140.6028035731 
576, 27907.185659392 
577, 27689.4882648212 
578, 27575.2853965153 
579, 27613.7271310317 
580, 27765.8350211716 
581, 28024.0028170898 
582, 28335.662621383 
583, 28606.7516110593 
584, 28779.3127996258 
585, 28783.0822911421 
586, 28610.3676902142 
587, 28389.7976597474 
588, 28112.0384639467 
589, 27734.6137307484 
590, 27261.6196944231 
591, 27093.1814597333 
592, 27224.8835733766 
593, 27469.5073885933 
594, 27467.8970496189 
595, 27335.8383157535 
596, 27145.8007607222 
597, 26948.7994229247 
598, 26731.2548454732 
599, 26463.4488442972 
600, 26168.7521492649 
601, 25907.6782704136 
602, 25704.4913341722 
603, 25597.37015978 
604, 25585.3730423982 
605, 25609.2261340047 
606, 25552.832064221 
607, 25411.1349690642 
608, 25229.4734445644 
609, 25049.8800667931 
610, 24879.4393888493 
611, 24725.2059994438 
612, 24593.6749290836 
613, 24454.1494508336 
614, 24291.2363280027 
615, 24113.9730746167 
616, 23975.644715851 
617, 23888.8104134339 
618, 23886.5353495636 
619, 23987.1091141107 
620, 24093.3065593857 
621, 24103.9185426406 
622, 23985.0122036252 
623, 23785.3743293049 
624, 23555.8477170835 
625, 23337.7673922918 
626, 23153.2305347693 
627, 22985.3690096036 
628, 22819.4357626364 
629, 22663.2424013078 
630, 22547.2408240405 
631, 22556.6941779667 
632, 22640.5196662194 
633, 22747.6072034403 
634, 22861.2041162961 
635, 22947.3477487133 
636, 23007.873109991 
637, 23053.160499059 
638, 23072.3150049882 
639, 23044.5598217583 
640, 22951.2474740133 
641, 22785.7371618398 
642, 22657.5723840584 
643, 22583.4097435922 
644, 22538.2303243124 
645, 22453.7754428625 
646, 22315.6419281722 
647, 22139.4569195433 
648, 21960.5198546665 
649, 21818.1399696708 
650, 21710.3304851241 
651, 21657.112677308 
652, 21694.6713835148 
653, 21655.9956081267 
654, 21427.2690726292 
655, 20988.0199117472 
656, 20468.3281543079 
657, 20093.8489484761 
658, 20104.7506487215 
659, 20624.5064594364 
660, 21159.1857397673 
661, 21471.244505676 
662, 21542.4434454628 
663, 21583.146324211 
664, 21570.9012897325 
665, 21545.6298422944 
666, 21541.7665443406 
667, 21555.5845884231 
668, 21556.7000089121 
669, 21544.656583311 
670, 21532.774456632 
671, 21496.2035775953 
672, 21451.6282326009 
673, 21425.2088929523 
674, 21449.0853579506 
675, 21485.1260674215 
676, 21513.3128681429 
677, 21526.7248187939 
678, 21543.7075069086 
679, 21555.3652745456 
680, 21559.4638639211 
681, 21557.0304654803 
682, 21548.4248811877 
683, 21505.7409725659 
684, 21334.4146158695 
685, 20854.8833715114 
686, 20000.4940367651 
687, 18844.9539236034 
688, 17668.6534440152 
689, 17179.6325748739 
690, 17539.5595153812 
691, 18426.5011999533 
692, 19231.1991719116 
693, 19936.5626238679 
694, 20448.2039345113 
695, 20759.3602203643 
696, 20981.3502089589 
697, 21174.2846795665 
698, 21307.5192148154 
699, 21340.1655984545 
700, 21297.7504931457 
701, 21256.3720865065 
702, 21268.0548248217 
703, 21362.3076979891 
704, 21550.1206791105 
705, 21766.3165034293 
706, 21950.5236157938 
707, 22064.4104517254 
708, 22158.8748420577 
709, 22244.2783255153 
710, 22320.7132856193 
711, 22393.7872200773 
712, 22449.9952674121 
713, 22476.5587626294 
714, 22455.2927814053 
715, 22346.8654061497 
716, 22051.6399645433 
717, 21525.9619506675 
718, 20806.6075057272 
719, 20205.3015336249 
720, 19986.6797326153 
721, 20255.1595275103 
722, 20814.7368255375 
723, 21208.0450490489 
724, 21276.325682252 
725, 21101.5431113232 
726, 21065.2817132351 
727, 21136.2212204933 
728, 21241.3679054425 
729, 21311.8988708524 
730, 21468.217613181 
731, 21741.6025644036 
732, 22115.5774019253 
733, 22525.8523001413 
734, 22884.6874438644 
735, 23120.7281953274 
736, 23200.8019344642 
737, 23195.3010249052 
738, 23175.4093681586 
739, 23159.1953073469 
740, 23122.4942144477 
741, 23121.226791311 
742, 23165.7925517721 
743, 23249.4875928196 
744, 23353.7748583069 
745, 23430.8307054963 
746, 23471.2804328591 
747, 23480.1473182078 
748, 23460.7810875807 
749, 23396.1791133328 
750, 23301.760578812 
751, 23215.5639114998 
752, 23175.7291214646 
753, 23169.70747765 
754, 23173.8538491734 
755, 23157.7619228306 
756, 23054.1995712987 
757, 22583.1421991994 
758, 21295.8417884864 
759, 18429.336007992 
760, 14199.0015106052 
761, 10038.9977678847 
762, 7691.21750339826 
763, 7669.52691620168 
764, 8894.92655950266 
765, 10814.4911392145 
766, 13357.1871735296 
767, 16132.8059775174 
768, 18548.107396777 
769, 20234.6572759201 
770, 21181.7104351892 
771, 21650.8996834112 
772, 21835.9134258223 
773, 21884.5005207698 
774, 21877.0561927779 
775, 21826.3615206087 
776, 21757.494178811 
777, 21689.3841743071 
778, 21601.8122967951 
779, 21495.9797583152 
780, 21387.5098550897 
781, 21298.8808223007 
782, 21202.4507350772 
783, 21089.7159066684 
784, 20962.0204612532 
785, 20830.6873744965 
786, 20700.6394500746 
787, 20548.9424870268 
788, 20356.926932264 
789, 20136.8911498515 
790, 19901.8481009942 
791, 19661.1923955892 
792, 19423.8401141925 
793, 19201.8858188755 
794, 19020.8059851941 
795, 18897.7400420586 
796, 18834.8346160565 
797, 18784.8635896863 
798, 18707.4529640541 
799, 18580.243570502 
800, 18403.8087867708 
801, 18210.2907604657 
802, 18029.755612657 
803, 17875.3817124209 
804, 17726.64763934 
805, 17599.5237465724 
806, 17482.3209338621 
807, 17351.764771896 
808, 17183.0631378922 
809, 16974.4947650953 
810, 16740.1962201679 
811, 16493.2391503408 
812, 16191.307801998 
813, 15796.5026811529 
814, 15305.3587233821 
815, 14754.8683654502 
816, 14244.3841710555 
817, 13846.6115631477 
818, 13606.2153010874 
819, 13535.1267483057 
820, 13521.8624865297 
821, 13480.2812415788 
822, 13374.226743705 
823, 13250.3672199575 
824, 13167.7915759132 
825, 13180.9291304369 
826, 13277.315366118 
827, 13252.2303676736 
828, 13106.809212352 
829, 12908.8106294679 
830, 12752.2856045736 
831, 12652.6932697827 
832, 12581.0836769003 
833, 12523.43188103 
834, 12482.2596846445 
835, 12463.9564132821 
836, 12456.6243276431 
837, 12438.5144733007 
838, 12382.1134233776 
839, 12293.2589940442 
840, 12184.2114855181 
841, 12064.610455555 
842, 11936.14626015 
843, 11803.6747163957 
844, 11673.6494971177 
845, 11548.9026685957 
846, 11426.6709898564 
847, 11274.9627549612 
848, 11090.2847110416 
849, 10883.7952928886 
850, 10676.9006407995 
851, 10435.2764872267 
852, 10184.355139405 
853, 9973.6713153408 
854, 9817.86671859135 
855, 9691.90147616533 
856, 9631.60485900443 
857, 9690.13172804836 
858, 9785.933859203 
859, 9810.76172807202 
860, 9741.84651956003 
861, 9634.20900004179 
862, 9507.95981519476 
863, 9344.94491548815 
864, 9146.44126268719 
865, 8941.65631448259 
866, 8746.89388192839 
867, 8581.11481274029 
868, 8471.64505860416 
869, 8453.65525219213 
870, 8473.90734307068 
871, 8464.69459345086 
872, 8394.10052089062 
873, 8296.70420618569 
874, 8191.2623902746 
875, 8084.76202794481 
876, 7979.275597703 
877, 7876.53266160891 
878, 7774.38633389955 
879, 7674.37203549936 
880, 7576.79222405136 
881, 7475.42129737121 
882, 7374.67822666318 
883, 7278.8058208756 
884, 7189.38233602661 
885, 7100.98636421519 
886, 7005.16213174985 
887, 6903.77524355424 
888, 6802.99185819045 
889, 6705.84322449251 
890, 6609.69788821618 
891, 6502.8864357947 
892, 6371.24455128437 
893, 6209.61904239271 
894, 6020.32313906269 
895, 5810.29955957819 
896, 5589.4428931989 
897, 5365.58786626174 
898, 5156.52762298246 
899, 4983.25425434145 
900, 4863.51856213371 
901, 4797.10836438874 
902, 4769.94673682299 
903, 4760.42150184226 
904, 4745.76534367204 
905, 4720.36008436754 
906, 4670.13158941592 
907, 4584.84670307401 
908, 4463.99727184312 
909, 4333.71527630472 
910, 4223.73913336448 
911, 4144.43390366992 
912, 4088.54140484741 
913, 4043.26763640586 
914, 3999.70285108945 
915, 3956.30310265374 
916, 3917.64441524988 
917, 3890.22728753447 
918, 3869.95580931983 
919, 3852.80560661627 
920, 3835.37496631769 
921, 3814.1202911581 
922, 3781.83991725923 
923, 3732.37165063506 
924, 3661.22396526367 
925, 3565.22728350671 
926, 3452.05327959617 
927, 3317.51324181971 
928, 3151.17973219694 
929, 2957.49120442668 
930, 2738.40652220298 
931, 2505.26754764462 
932, 2277.2944276013 
933, 2077.55420638108 
934, 1919.72511424071 
935, 1812.93865853027 
936, 1758.85964585955 
937, 1744.9509714225 
938, 1759.14774505376 
939, 1783.6486005669 
940, 1803.26361934432 
941, 1822.91329311531 
942, 1830.55595592515 
943, 1816.19349455153 
944, 1777.4849407554 
945, 1728.28817701675 
946, 1687.24317950381 
947, 1663.00726900174 
948, 1654.82880528883 
949, 1652.10522164384 
950, 1649.77363575463 
951, 1646.00466861425 
952, 1640.17226599935 
953, 1630.39926095219 
954, 1620.75008035045 
955, 1613.66984461428 
956, 1609.57638622955 
957, 1606.24038279375 
958, 1603.50202983476 
959, 1602.55650943921 
960, 1604.32726024581 
961, 1608.53652894365 
962, 1611.32736007672 
963, 1615.8740100718 
964, 1623.26969633615 
965, 1630.44170098338 
966, 1635.43244170414 
967, 1635.42325619752 
968, 1630.98925571406 
969, 1625.0624784731 
970, 1614.87617415186 
971, 1601.25719926783 
972, 1581.85864291335 
973, 1553.78130658915 
974, 1521.71806231599 
975, 1489.91694038525 
976, 1459.06721267378 
977, 1429.59946328793 
978, 1408.0368999387 
979, 1389.69068026449 
980, 1373.06681116383 
981, 1357.49568440981 
982, 1341.4932113322 
983, 1325.43934134657 
984, 1307.7381865722 
985, 1287.61741902751 
986, 1266.28359864499 
987, 1242.93992013364 
988, 1219.20851565096 
989, 1195.50331938763 
990, 1170.56775731718 
991, 1143.99785119611 
992, 1119.0712492746 
993, 1095.18109543863 
994, 1069.4415914435 
995, 1043.33958690704 
996, 1017.86684911201 
997, 991.894259845883 
998, 964.695886874369 
999, 939.704205264566 
1000, 914.125667212928 
1001, 5791.38697141658 
1002, 5773.65173987455 
1003, 5758.4224803102 
1004, 5749.85190318677 
1005, 5740.81425223389 
1006, 5734.43018820367 
1007, 5737.05010594758 
1008, 5744.14192049893 
1009, 5755.43457464215 
1010, 5776.52661609133 
1011, 5795.01662199852 
1012, 5816.44440912857 
1013, 5835.60096055779 
1014, 5853.89832866978 
1015, 5874.89696791036 
1016, 5904.470219006 
1017, 5936.83322725113 
1018, 5965.15270515512 
1019, 5991.21534412914 
1020, 6019.88790688225 
1021, 6051.06643626408 
1022, 6083.05653588087 
1023, 6120.08193262803 
1024, 6159.77960608971 
1025, 6190.52024170217 
1026, 6217.75824830714 
1027, 6248.37379271959 
1028, 6279.91892633228 
1029, 6312.98485535002 
1030, 6349.45886895313 
1031, 6382.75388373253 
1032, 6409.84241222532 
1033, 6438.04902684475 
1034, 6464.52708287069 
1035, 6492.03318540199 
1036, 6519.6084796564 
1037, 6549.32426168596 
1038, 6572.61052181456 
1039, 6593.02002296983 
1040, 6609.56323035511 
1041, 6623.63048144434 
1042, 6643.2243497429 
1043, 6664.09118487027 
1044, 6677.48153070414 
1045, 6690.03350769069 
1046, 6706.31473904403 
1047, 6724.36533691902 
1048, 6740.61574587295 
1049, 6765.52660449767 
1050, 6793.37667154084 
1051, 6819.24143468775 
1052, 6848.67613500847 
1053, 6874.51049605886 
1054, 6900.72376280606 
1055, 6928.82636725054 
1056, 6956.50664437107 
1057, 6990.31096598896 
1058, 7028.73166125228 
1059, 7070.4764887863 
1060, 7113.13689628709 
1061, 7151.57414222911 
1062, 7202.37988905 
1063, 7259.75120794237 
1064, 7322.84789022655 
1065, 7386.37604011393 
1066, 7459.93994859957 
1067, 7535.53188829119 
1068, 7613.69883313067 
1069, 7702.44526691491 
1070, 7799.1478441291 
1071, 7902.70366948969 
1072, 8004.99093453634 
1073, 8108.90462636561 
1074, 8224.54533706599 
1075, 8327.5073946481 
1076, 8425.95813845957 
1077, 8521.11654361891 
1078, 8607.56398413425 
1079, 8681.88282786391 
1080, 8749.92666618818 
1081, 8807.80788935034 
1082, 8857.2700729495 
1083, 8907.48871261753 
1084, 8954.81188840304 
1085, 8994.61300902499 
1086, 9033.49363132665 
1087, 9074.0775852121 
1088, 9103.21273225675 
1089, 9131.56422537166 
1090, 9146.77652558483 
1091, 9152.24366828642 
1092, 9147.03911460557 
1093, 9132.27113505023 
1094, 9105.77048183939 
1095, 9080.94673069697 
1096, 9053.94584224038 
1097, 9022.70334843159 
1098, 8991.04101965024 
1099, 8959.7569426701 
1100, 8923.88219680223 
1101, 8891.46721833565 
1102, 8868.53168196475 
1103, 8832.02034434632 
1104, 8797.345640982 
1105, 8747.86830723602 
1106, 8683.20451895716 
1107, 8599.06277827338 
1108, 8484.03473618085 
1109, 8338.17015014835 
1110, 8137.99175704568 
1111, 7890.88061769515 
1112, 7601.11060064123 
1113, 7243.13646943683 
1114, 6890.94778051039 
1115, 6480.45823310643 
1116, 6113.60268055033 
1117, 5720.10112314136 
1118, 5384.66929725309 
1119, 5074.60409664465 
1120, 4796.99592389497 
1121, 4568.36150023556 
1122, 4385.63730597324 
1123, 4257.41667660757 
1124, 4171.38827372329 
1125, 4127.86840499509 
1126, 4147.02346229906 
1127, 4166.11918240461 
1128, 4224.52213265356 
1129, 4287.47088557075 
1130, 4372.74643488265 
1131, 4460.16563200875 
1132, 4556.26878118095 
1133, 4667.17013551861 
1134, 4784.67161716716 
1135, 4913.18887669289 
1136, 5086.21672251805 
1137, 5264.78349709665 
1138, 5436.98221247172 
1139, 5596.70151396384 
1140, 5698.34505658202 
1141, 5766.87660391426 
1142, 5794.21341198765 
1143, 5755.07996543597 
1144, 5732.52973845872 
1145, 5634.88537693008 
1146, 5625.40694486365 
1147, 5622.3206812463 
1148, 5681.10119800438 
1149, 5803.59875034125 
1150, 5952.46326900737 
1151, 6148.2176260458 
1152, 6369.88160682565 
1153, 6603.56609659598 
1154, 6878.21780373486 
1155, 7135.66161685694 
1156, 7410.04659271249 
1157, 7663.83724444015 
1158, 7922.14953410565 
1159, 8156.1477966382 
1160, 8380.27767337961 
1161, 8582.38283074695 
1162, 8773.26799137147 
1163, 8936.7799864399 
1164, 9073.7835078913 
1165, 9197.26429354185 
1166, 9299.69372609004 
1167, 9372.69154941296 
1168, 9432.56182995126 
1169, 9471.64151206329 
1170, 9499.64444640147 
1171, 9514.47836081592 
1172, 9504.89166915759 
1173, 9471.95446106058 
1174, 9435.32942294564 
1175, 9369.62548164724 
1176, 9312.59387696228 
1177, 9253.98745943343 
1178, 9193.25146714071 
