Wavelength,0212202100101.asd
350, 2834.77251285969 
351, 2981.48506997035 
352, 3118.55477069009 
353, 3233.22177040674 
354, 3343.58092737542 
355, 3459.49886875229 
356, 3584.05812881946 
357, 3707.89386077515 
358, 3835.04984899027 
359, 3969.24901928361 
360, 4116.93593838456 
361, 4297.89517450747 
362, 4506.79289365312 
363, 4733.5891850768 
364, 4966.19435490534 
365, 5203.27228329465 
366, 5428.63748868748 
367, 5624.4174295013 
368, 5775.47501038772 
369, 5864.35736105789 
370, 5895.04066636601 
371, 5885.16521169491 
372, 5862.0314704959 
373, 5851.12340257971 
374, 5857.87667102799 
375, 5872.3452358881 
376, 5887.62669988302 
377, 5896.35233697704 
378, 5884.80581876527 
379, 5831.4998846806 
380, 5762.11290237275 
381, 5684.04574092195 
382, 5596.70954755206 
383, 5488.63402926857 
384, 5376.47287897847 
385, 5297.66372945857 
386, 5297.24475601914 
387, 5403.62313951475 
388, 5560.26071343059 
389, 5699.79794266498 
390, 5759.96981968251 
391, 5824.49060280226 
392, 5888.97531099735 
393, 5941.41922572534 
394, 5982.20640905629 
395, 6102.53094088047 
396, 6343.24455359298 
397, 6720.18425372 
398, 7253.32223953145 
399, 7859.47856866358 
400, 8480.3570979603 
401, 9086.33593397881 
402, 9662.95048668439 
403, 10139.4791617044 
404, 10484.2485268774 
405, 10747.5048037652 
406, 10957.0433285652 
407, 11144.7589486834 
408, 11348.166694643 
409, 11626.5066202378 
410, 11963.3279010204 
411, 12336.8889986242 
412, 12723.2159549297 
413, 13104.6623535806 
414, 13484.7129632982 
415, 13854.1777146191 
416, 14174.7776960542 
417, 14478.3392968149 
418, 14789.0454695097 
419, 15113.1532365479 
420, 15395.6348506025 
421, 15681.4716478295 
422, 15993.4018811428 
423, 16329.0873413772 
424, 16639.5772732244 
425, 16885.0424090483 
426, 17030.2334682974 
427, 17040.2635062544 
428, 16974.5972202651 
429, 16983.7598369747 
430, 17189.4196088232 
431, 17494.1427839964 
432, 17894.8117383737 
433, 18485.8219214381 
434, 19391.6426501414 
435, 20351.532589458 
436, 21086.1942573354 
437, 21538.5419414758 
438, 22013.868441969 
439, 22504.4719322519 
440, 22968.5096324823 
441, 23387.3327961213 
442, 23926.8131595386 
443, 24497.2767731943 
444, 25022.5903053075 
445, 25449.9329757911 
446, 25793.6143701013 
447, 26101.0564535395 
448, 26426.0397012328 
449, 26832.630600382 
450, 27178.6075641044 
451, 27364.8119639497 
452, 27352.593487907 
453, 27280.5571498505 
454, 27125.4743372691 
455, 26928.972874416 
456, 26791.5705688968 
457, 26757.9202008428 
458, 26763.8925761639 
459, 26742.8825772169 
460, 26669.8645893251 
461, 26562.3115642918 
462, 26447.0776671313 
463, 26337.581226817 
464, 26160.4783370235 
465, 25887.7788657778 
466, 25553.5192864656 
467, 25249.5861840502 
468, 24991.8218825706 
469, 24795.7011548975 
470, 24670.5209963137 
471, 24627.5773443677 
472, 24597.0725437178 
473, 24585.1176046128 
474, 24619.4494768145 
475, 24608.5149196738 
476, 24578.5948167041 
477, 24559.6271565651 
478, 24571.679227908 
479, 24651.5603577929 
480, 24764.3667952058 
481, 24846.7690144741 
482, 24829.3819193676 
483, 24647.2268211062 
484, 24261.4078188681 
485, 23683.3893856942 
486, 23118.2284884047 
487, 22714.5100440125 
488, 22591.3716283757 
489, 22849.5810679115 
490, 23271.1307314942 
491, 23621.1137118124 
492, 23744.0050230517 
493, 23787.8519187093 
494, 23852.1731637158 
495, 23984.1089888003 
496, 24170.0935653672 
497, 24228.3525657094 
498, 24160.4735508765 
499, 24007.4311044656 
500, 23804.7416311109 
501, 23649.3654282159 
502, 23584.8224909499 
503, 23632.4120864343 
504, 23847.599788545 
505, 24151.7019023255 
506, 24463.5345300278 
507, 24713.1369922695 
508, 24902.0538025437 
509, 25049.472640303 
510, 25187.1749721218 
511, 25372.3684888237 
512, 25502.713733986 
513, 25529.6606656885 
514, 25439.5510367653 
515, 25230.6474474676 
516, 24949.0136468556 
517, 24673.1087260351 
518, 24509.7186688304 
519, 24711.0498349051 
520, 25303.2002921268 
521, 26145.5662279972 
522, 26848.2322617631 
523, 27374.111363614 
524, 27744.3500283125 
525, 28018.797336611 
526, 28140.1159941958 
527, 28189.1821626971 
528, 28333.9168543014 
529, 28895.5319940107 
530, 29633.0724980643 
531, 30259.3681042518 
532, 30535.8289141586 
533, 30625.3354706369 
534, 30760.5269529773 
535, 31066.3884146291 
536, 31532.8186280936 
537, 31871.9711684322 
538, 32031.0218676297 
539, 32051.9949402239 
540, 32040.4248198453 
541, 32066.9067706339 
542, 32227.8725308566 
543, 32598.9109495771 
544, 33031.4135881863 
545, 33409.9950293067 
546, 33672.0755574019 
547, 33824.2106883215 
548, 33923.8755374036 
549, 34039.6934201286 
550, 34215.4130957326 
551, 34396.8570448986 
552, 34538.2661459966 
553, 34642.0928684033 
554, 34748.0666824954 
555, 34829.3695994545 
556, 34800.5440423105 
557, 34612.7786388438 
558, 34295.3919520326 
559, 34019.490973933 
560, 33891.6146171279 
561, 33953.4577463504 
562, 34106.1728412599 
563, 34195.695423599 
564, 34145.4870693599 
565, 33977.2430098959 
566, 33739.3940266981 
567, 33493.3368831048 
568, 33277.951695164 
569, 33066.6608026578 
570, 32793.6300374771 
571, 32532.5360420122 
572, 32432.1094939937 
573, 32456.070221033 
574, 32445.0878837491 
575, 32296.2948550853 
576, 32020.4911218252 
577, 31767.3751002949 
578, 31634.1916019853 
579, 31672.9286260596 
580, 31843.3033030966 
581, 32138.0045918606 
582, 32495.003289996 
583, 32802.3118457617 
584, 32999.6994496205 
585, 33002.4573959341 
586, 32798.1876225865 
587, 32536.7838866412 
588, 32208.5559253694 
589, 31766.7399672305 
590, 31217.402197616 
591, 31014.3943041214 
592, 31156.9486870074 
593, 31430.862023515 
594, 31418.883871099 
595, 31260.3060006417 
596, 31037.0062422628 
597, 30805.2651761995 
598, 30551.2251276152 
599, 30240.1194258628 
600, 29898.2687362748 
601, 29595.026296294 
602, 29361.8672957073 
603, 29234.7531188495 
604, 29211.2118871738 
605, 29236.2263218418 
606, 29170.8675266311 
607, 29006.3593818773 
608, 28793.6602098399 
609, 28585.6909369198 
610, 28388.270372176 
611, 28208.9963074137 
612, 28056.8408914859 
613, 27897.6039241537 
614, 27711.8415071203 
615, 27508.2695809716 
616, 27348.0434854109 
617, 27246.7090231163 
618, 27241.7855126591 
619, 27353.6640337454 
620, 27474.1457578333 
621, 27485.6382730528 
622, 27347.5323828418 
623, 27114.4826828461 
624, 26849.7203314677 
625, 26596.2859610442 
626, 26376.1948244601 
627, 26178.0855063014 
628, 25981.3677886512 
629, 25795.233010126 
630, 25657.0704712228 
631, 25663.6784174938 
632, 25755.0455648349 
633, 25872.2410134992 
634, 25997.5588369048 
635, 26094.1214006501 
636, 26159.4625952786 
637, 26201.8928438259 
638, 26219.428445832 
639, 26178.9226577089 
640, 26061.1072890039 
641, 25869.0820435149 
642, 25715.3734237124 
643, 25619.8478810908 
644, 25556.6159434119 
645, 25449.3646468592 
646, 25281.0631982613 
647, 25068.5726685073 
648, 24851.3187201373 
649, 24674.5826334955 
650, 24540.7126971371 
651, 24471.2488526306 
652, 24500.3244237314 
653, 24442.6454069249 
654, 24170.4085722204 
655, 23661.8853225366 
656, 23069.2300086338 
657, 22635.6286982019 
658, 22631.2625029426 
659, 23200.17972948 
660, 23788.4770024745 
661, 24128.9329720669 
662, 24198.2989691435 
663, 24227.7862870309 
664, 24200.9440377143 
665, 24159.6624986924 
666, 24139.4318029638 
667, 24140.6864816921 
668, 24128.740682833 
669, 24103.3876299533 
670, 24079.679931626 
671, 24025.2659514959 
672, 23962.0418140336 
673, 23921.0475040549 
674, 23936.9115246831 
675, 23962.8306084439 
676, 23979.2887964222 
677, 23982.2679898155 
678, 23992.2677890633 
679, 23995.6560540243 
680, 23988.4043412042 
681, 23972.1511184093 
682, 23951.6253935426 
683, 23893.0761175903 
684, 23689.502273037 
685, 23142.0598430784 
686, 22171.7324987853 
687, 20865.582478944 
688, 19540.7378339541 
689, 18979.393859788 
690, 19369.4936341302 
691, 20351.7068304709 
692, 21241.302449857 
693, 22020.0721061826 
694, 22583.1445082902 
695, 22922.656266517 
696, 23161.3742052153 
697, 23365.8926938326 
698, 23505.4714887538 
699, 23535.7615196534 
700, 23474.777043359 
701, 23416.4073706687 
702, 23420.2408333755 
703, 23515.8137192385 
704, 23714.5502907336 
705, 23945.2386358922 
706, 24140.4741425123 
707, 24254.739340044 
708, 24350.1280193721 
709, 24436.5216967509 
710, 24511.4664848115 
711, 24582.657189764 
712, 24632.3647946112 
713, 24649.2456619208 
714, 24617.6883740647 
715, 24485.1571553534 
716, 24145.2402885457 
717, 23553.2193360605 
718, 22751.1248743659 
719, 22079.8221812922 
720, 21828.9865570229 
721, 22112.9970326983 
722, 22717.9933226604 
723, 23139.52092721 
724, 23203.0576155768 
725, 22999.6018787868 
726, 22949.2983994133 
727, 23017.3656190404 
728, 23123.5673141494 
729, 23192.6440183787 
730, 23354.6603443125 
731, 23643.3093288843 
732, 24041.7922176792 
733, 24485.1343413418 
734, 24867.4720659545 
735, 25112.9652242132 
736, 25190.938655416 
737, 25174.7842080607 
738, 25144.1025745048 
739, 25118.1749506474 
740, 25068.1925358472 
741, 25056.5834714154 
742, 25093.0914867791 
743, 25170.4824783342 
744, 25272.3899010033 
745, 25341.0259847746 
746, 25369.4931683182 
747, 25366.9596798694 
748, 25332.09634977 
749, 25245.3941401011 
750, 25126.094153611 
751, 25019.0691881938 
752, 24959.3713962027 
753, 24938.2314152159 
754, 24929.7926428202 
755, 24893.6862684631 
756, 24761.5983056147 
757, 24236.323672918 
758, 22837.387137909 
759, 19742.1590850232 
760, 15181.5444305481 
761, 10693.6620718447 
762, 8147.58630896583 
763, 8097.27435739398 
764, 9390.53299100196 
765, 11435.8369186661 
766, 14155.4576911026 
767, 17131.1918467516 
768, 19724.3515210218 
769, 21536.3402034204 
770, 22551.4447180273 
771, 23051.1875760666 
772, 23243.2215576806 
773, 23286.4300829747 
774, 23269.0064472709 
775, 23204.7228701345 
776, 23121.0452095482 
777, 23038.9418685475 
778, 22937.1386092475 
779, 22815.0336687978 
780, 22689.5424128383 
781, 22586.7550705749 
782, 22477.6369950414 
783, 22350.5074297676 
784, 22205.7955727756 
785, 22057.6939223489 
786, 21913.3021128311 
787, 21748.0455695498 
788, 21540.1606252808 
789, 21297.4619728037 
790, 21042.2027537034 
791, 20785.3833764793 
792, 20533.3953953718 
793, 20293.6204402294 
794, 20100.1017030099 
795, 19970.1159763482 
796, 19899.6871262817 
797, 19847.4304903291 
798, 19765.5639575261 
799, 19628.6306911245 
800, 19441.8190588053 
801, 19237.7226345394 
802, 19048.1356867633 
803, 18887.0278785205 
804, 18732.4352512715 
805, 18599.5074533673 
806, 18478.0519328738 
807, 18345.1777857142 
808, 18169.454906066 
809, 17951.707259759 
810, 17705.8360713251 
811, 17444.0058431548 
812, 17130.2430546117 
813, 16715.4381041757 
814, 16194.4370416361 
815, 15612.8529447298 
816, 15074.2609592011 
817, 14655.0512159867 
818, 14403.3387947092 
819, 14334.3802780971 
820, 14326.5988348625 
821, 14287.3170624031 
822, 14178.2618473554 
823, 14050.9205220173 
824, 13967.086472175 
825, 13984.4481871395 
826, 14090.417352322 
827, 14070.2473698611 
828, 13920.3160224479 
829, 13712.6975263351 
830, 13549.6655935032 
831, 13446.042225529 
832, 13373.8901241236 
833, 13317.2122567343 
834, 13275.1345866031 
835, 13259.8682037678 
836, 13255.4618352445 
837, 13236.121987475 
838, 13172.5334990899 
839, 13080.9675690568 
840, 12968.1292750174 
841, 12840.2065631242 
842, 12704.1198453903 
843, 12560.9587896607 
844, 12420.4567790843 
845, 12287.5431434962 
846, 12154.6465105781 
847, 11989.413876192 
848, 11790.0510481227 
849, 11569.0501129861 
850, 11344.9281184756 
851, 11083.7902051514 
852, 10813.3504495662 
853, 10585.9710814895 
854, 10417.3145201155 
855, 10278.8658747993 
856, 10209.1204989229 
857, 10266.1872573699 
858, 10361.813138092 
859, 10382.3817898346 
860, 10304.4596685633 
861, 10186.3486446739 
862, 10048.7673163686 
863, 9870.71900943438 
864, 9653.32970412692 
865, 9429.31464081422 
866, 9219.40624366195 
867, 9040.35011938116 
868, 8918.8727666456 
869, 8893.45718355964 
870, 8908.90818991151 
871, 8893.17702576412 
872, 8812.85151815514 
873, 8706.87216578753 
874, 8590.21610597079 
875, 8472.36735131577 
876, 8357.2163106863 
877, 8243.12743534185 
878, 8131.16415224194 
879, 8021.50303991269 
880, 7913.0572620386 
881, 7802.09527678802 
882, 7691.04912327057 
883, 7586.39722104963 
884, 7491.3165164071 
885, 7395.16751077298 
886, 7291.36197754474 
887, 7182.23510043146 
888, 7073.8686094779 
889, 6969.4232107306 
890, 6865.03280903678 
891, 6749.90209158527 
892, 6611.08252319951 
893, 6441.57069751645 
894, 6242.9292648362 
895, 6022.21369212421 
896, 5790.16447038201 
897, 5556.25196867936 
898, 5336.59052374466 
899, 5154.41911809187 
900, 5030.69739751113 
901, 4960.37580070755 
902, 4930.18904898854 
903, 4919.97370592665 
904, 4907.23451929322 
905, 4879.38062568291 
906, 4825.84204692953 
907, 4736.61513068933 
908, 4609.62698138553 
909, 4476.01333030558 
910, 4362.59993884819 
911, 4279.96773877934 
912, 4222.83075568469 
913, 4173.91062836728 
914, 4127.58951018366 
915, 4081.68687883422 
916, 4038.40484600784 
917, 4012.68212833594 
918, 3992.77145536458 
919, 3973.51395335726 
920, 3955.70083964536 
921, 3935.25449202008 
922, 3904.0215704604 
923, 3852.51442387707 
924, 3773.91513904444 
925, 3677.28290188873 
926, 3560.52704916246 
927, 3419.49687700485 
928, 3249.51548790124 
929, 3046.72615694153 
930, 2819.70424502037 
931, 2580.73618278401 
932, 2345.93613586814 
933, 2137.59322260949 
934, 1973.21095319993 
935, 1863.6472410838 
936, 1809.79367149723 
937, 1794.88328741543 
938, 1808.0002620027 
939, 1832.18672047181 
940, 1852.38559745111 
941, 1872.15590306935 
942, 1879.18506848296 
943, 1863.20780198388 
944, 1822.23287855981 
945, 1772.28390327935 
946, 1731.6016320334 
947, 1706.54014335156 
948, 1695.27076584271 
949, 1691.87824591359 
950, 1688.32062533178 
951, 1684.08982016312 
952, 1679.51137719222 
953, 1669.47636602137 
954, 1659.9753832616 
955, 1651.17087270214 
956, 1643.63813840666 
957, 1641.69358280314 
958, 1638.6592070946 
959, 1635.78472289326 
960, 1635.53838305782 
961, 1638.81701001906 
962, 1640.61889033048 
963, 1644.66961873268 
964, 1651.94358483993 
965, 1658.2256722711 
966, 1661.55899276103 
967, 1660.84997090657 
968, 1655.70695231427 
969, 1646.61501707363 
970, 1636.69241446836 
971, 1622.74738659152 
972, 1601.27434550367 
973, 1570.98556384866 
974, 1538.05354056014 
975, 1504.18846406251 
976, 1471.57809219252 
977, 1442.34841196938 
978, 1417.81274577024 
979, 1397.66918927825 
980, 1381.38150026287 
981, 1366.67435402135 
982, 1348.0022851344 
983, 1329.9003303987 
984, 1311.22691205427 
985, 1290.68806704407 
986, 1269.01598627662 
987, 1244.09179051072 
988, 1219.25814158674 
989, 1194.5765167958 
990, 1166.59483113258 
991, 1141.08053746606 
992, 1114.70127289618 
993, 1087.5807452933 
994, 1062.50911383045 
995, 1039.60758642916 
996, 1013.37163165619 
997, 984.722265276314 
998, 957.25190424619 
999, 932.182439201911 
1000, 906.698083403307 
1001, 5802.8946358006 
1002, 5779.10844922323 
1003, 5751.37935663404 
1004, 5736.66334180435 
1005, 5729.26400125757 
1006, 5722.70756614829 
1007, 5723.14469232401 
1008, 5736.4852535584 
1009, 5748.78309503349 
1010, 5760.62669222007 
1011, 5779.10873238365 
1012, 5807.10403330691 
1013, 5828.77406935138 
1014, 5849.5585220373 
1015, 5871.5434897708 
1016, 5884.56002282764 
1017, 5899.06017727864 
1018, 5919.74573677958 
1019, 5945.5565580324 
1020, 5976.41433287736 
1021, 6007.38569946306 
1022, 6041.00196155408 
1023, 6076.71992592052 
1024, 6113.30019777986 
1025, 6151.43580521824 
1026, 6189.30727120105 
1027, 6220.97152434461 
1028, 6249.32218768223 
1029, 6274.70023904695 
1030, 6305.08200822032 
1031, 6335.155324502 
1032, 6357.39636651462 
1033, 6384.02966051506 
1034, 6408.07657428314 
1035, 6432.4129866446 
1036, 6456.34682655928 
1037, 6485.63052765188 
1038, 6510.71294963106 
1039, 6535.09537955918 
1040, 6559.52307752693 
1041, 6587.19352022576 
1042, 6612.27653700891 
1043, 6630.6031349765 
1044, 6647.24648527909 
1045, 6660.96552380957 
1046, 6681.13870690122 
1047, 6702.9095778628 
1048, 6728.89122159367 
1049, 6752.99648014068 
1050, 6782.15108664663 
1051, 6807.64781857862 
1052, 6828.37615353563 
1053, 6853.29092853211 
1054, 6874.73504737771 
1055, 6897.2779334714 
1056, 6921.62700575325 
1057, 6948.64729353706 
1058, 6985.67240099389 
1059, 7028.18096705013 
1060, 7075.77424581958 
1061, 7134.34263199947 
1062, 7192.91954653193 
1063, 7256.05930609721 
1064, 7315.18554814236 
1065, 7380.28653102362 
1066, 7454.50267199364 
1067, 7529.12098071968 
1068, 7614.72823809122 
1069, 7712.59495984804 
1070, 7811.80102714513 
1071, 7913.47481325022 
1072, 8019.41107465205 
1073, 8122.10011486518 
1074, 8223.89315034288 
1075, 8319.3961384772 
1076, 8414.63590039079 
1077, 8506.1938595415 
1078, 8583.25116178401 
1079, 8657.78806316665 
1080, 8729.32022178839 
1081, 8789.67046859542 
1082, 8840.5533609966 
1083, 8894.04489255657 
1084, 8944.97907414237 
1085, 8985.48765558136 
1086, 9027.15650750941 
1087, 9074.04033689505 
1088, 9106.3568291669 
1089, 9136.07741017336 
1090, 9152.24644847295 
1091, 9158.17586455259 
1092, 9152.42399887787 
1093, 9135.11671769472 
1094, 9112.4126463483 
1095, 9081.92399754764 
1096, 9049.52476506548 
1097, 9019.3923928684 
1098, 8984.61539714136 
1099, 8953.40828753066 
1100, 8926.36999680492 
1101, 8893.77431227871 
1102, 8863.08481311396 
1103, 8825.01019555318 
1104, 8789.39266512733 
1105, 8738.43423016729 
1106, 8675.00123886651 
1107, 8591.62287415452 
1108, 8470.90188013844 
1109, 8315.7313349816 
1110, 8105.88149455635 
1111, 7849.496608381 
1112, 7559.37152782462 
1113, 7210.72824849533 
1114, 6858.89201777965 
1115, 6452.2208033731 
1116, 6087.77635630194 
1117, 5688.40237577487 
1118, 5352.72564550687 
1119, 5052.32437928955 
1120, 4771.39133820905 
1121, 4538.64462094667 
1122, 4353.53090586841 
1123, 4217.20456868707 
1124, 4127.83467799164 
1125, 4082.48101531745 
1126, 4100.46155061601 
1127, 4121.69760575979 
1128, 4187.14151997781 
1129, 4253.3597206068 
1130, 4346.89577995377 
1131, 4432.61779676167 
1132, 4518.89036962489 
1133, 4624.28761624648 
1134, 4731.09339656746 
1135, 4850.97693407095 
1136, 5028.35793909297 
1137, 5210.38429841742 
1138, 5379.81415531935 
1139, 5536.5339197446 
1140, 5636.89035887827 
1141, 5698.71263580401 
1142, 5722.93391439899 
1143, 5688.44415581925 
1144, 5665.08753607048 
1145, 5561.44752351334 
1146, 5548.47808127944 
1147, 5539.26178585933 
1148, 5597.12329026975 
1149, 5720.47980559454 
1150, 5875.61854131575 
1151, 6073.48627393008 
1152, 6296.43719351121 
1153, 6528.12866642024 
1154, 6793.77229548156 
1155, 7045.69657046477 
1156, 7317.23450472511 
1157, 7563.7575294286 
1158, 7810.80762362945 
1159, 8036.42035059466 
1160, 8251.30969458078 
1161, 8445.46058312037 
1162, 8627.91699941654 
1163, 8785.85339103876 
1164, 8922.87930887428 
1165, 9039.29967751128 
1166, 9131.39814227212 
1167, 9206.96864826985 
1168, 9261.40549960391 
1169, 9291.82217028108 
1170, 9311.17839391801 
1171, 9311.38949825709 
1172, 9299.58223892456 
1173, 9271.89958708651 
1174, 9234.21582509352 
1175, 9177.53345704857 
1176, 9118.95843496576 
1177, 9044.19441838591 
1178, 8975.00740609526 
