Wavelength,0212202100049.asd
350, 3498.25581737248 
351, 3681.98779318149 
352, 3852.08629693752 
353, 3995.52451798773 
354, 4134.44669919351 
355, 4282.26517597415 
356, 4442.41393626762 
357, 4597.3120583532 
358, 4757.10506368807 
359, 4927.60651017454 
360, 5116.13528390487 
361, 5348.14427844271 
362, 5614.22518427185 
363, 5900.35982138499 
364, 6191.65647356537 
365, 6488.07380599498 
366, 6772.01295332949 
367, 7021.37610079516 
368, 7212.77712347762 
369, 7326.59338804786 
370, 7368.17304578205 
371, 7359.13976016763 
372, 7331.74541163112 
373, 7322.88427382407 
374, 7338.75486689063 
375, 7362.49976929266 
376, 7384.01062252556 
377, 7397.55217487968 
378, 7387.27694948934 
379, 7323.83122181802 
380, 7238.29679592738 
381, 7141.51241534114 
382, 7034.6791651629 
383, 6904.48852383369 
384, 6768.64753330792 
385, 6673.44123456001 
386, 6676.25702441821 
387, 6815.10528596863 
388, 7013.52547338477 
389, 7187.98165551383 
390, 7268.12396796926 
391, 7351.42573330506 
392, 7433.29436885213 
393, 7500.91230479079 
394, 7555.98710324259 
395, 7714.66635401412 
396, 8027.05915664218 
397, 8510.3270641855 
398, 9185.7310836037 
399, 9954.64443896316 
400, 10744.2586428652 
401, 11512.9486772897 
402, 12245.5956341446 
403, 12849.9685391458 
404, 13285.8196711475 
405, 13623.1719919787 
406, 13893.5343245365 
407, 14134.7255684512 
408, 14393.7292339198 
409, 14752.6236377177 
410, 15182.6490810321 
411, 15656.9302265853 
412, 16151.9647167532 
413, 16640.327044471 
414, 17125.5943130216 
415, 17596.7421656203 
416, 18007.3560917104 
417, 18395.8170941586 
418, 18795.5587009848 
419, 19216.2058807191 
420, 19579.909078319 
421, 19947.0833480538 
422, 20348.1367261045 
423, 20779.9291181015 
424, 21178.0938361606 
425, 21493.9702205054 
426, 21683.2326812298 
427, 21698.5112865211 
428, 21618.1572118412 
429, 21637.1103494508 
430, 21911.2313981926 
431, 22307.8680445021 
432, 22828.9284498743 
433, 23593.194657958 
434, 24753.1678640686 
435, 25983.8040642554 
436, 26926.6561627797 
437, 27508.7383229507 
438, 28125.2124706576 
439, 28760.8480785524 
440, 29360.4740208487 
441, 29901.2728008587 
442, 30602.0343284731 
443, 31342.4718180044 
444, 32023.5448933241 
445, 32579.2797673391 
446, 33026.3881717414 
447, 33427.4424631057 
448, 33852.0899874238 
449, 34380.4569354815 
450, 34827.3541492743 
451, 35069.0319855484 
452, 35059.9639632019 
453, 34973.5030203533 
454, 34781.8714621123 
455, 34537.8780401374 
456, 34367.7260394978 
457, 34331.8190653135 
458, 34348.1895582944 
459, 34330.3581338291 
460, 34243.4051929665 
461, 34111.4262636525 
462, 33968.0021469925 
463, 33829.8763589827 
464, 33609.6217886092 
465, 33266.5342974676 
466, 32842.0295230229 
467, 32455.2635502319 
468, 32130.5137265257 
469, 31888.2577716409 
470, 31739.0039983446 
471, 31692.7932491981 
472, 31662.9451448708 
473, 31658.5239416414 
474, 31715.152024511 
475, 31712.6405493968 
476, 31686.7029541037 
477, 31674.7506169478 
478, 31697.4433487557 
479, 31805.6029530023 
480, 31951.5956229002 
481, 32052.4584840738 
482, 32025.2828775866 
483, 31787.9439208176 
484, 31289.7227157156 
485, 30543.9379210103 
486, 29819.4698657663 
487, 29308.6742938145 
488, 29163.5191860013 
489, 29509.7240020584 
490, 30058.7450682543 
491, 30513.5029048491 
492, 30680.520817996 
493, 30743.2143875775 
494, 30835.0071541766 
495, 31014.9039559751 
496, 31258.6554249408 
497, 31339.0651315432 
498, 31258.2634070166 
499, 31067.8336259148 
500, 30811.7636892125 
501, 30618.4273573483 
502, 30545.5171923415 
503, 30620.7214807713 
504, 30913.5753773007 
505, 31318.5030506941 
506, 31727.9470563348 
507, 32050.6534939022 
508, 32297.7166316539 
509, 32491.2581381666 
510, 32669.5319051581 
511, 32911.4497550601 
512, 33081.7121172487 
513, 33115.9847970228 
514, 32996.5823983209 
515, 32726.8100979626 
516, 32362.7747569751 
517, 32006.5743665474 
518, 31804.3256574663 
519, 32079.5305554914 
520, 32858.8603359199 
521, 33954.8614122373 
522, 34868.8335484389 
523, 35552.740556133 
524, 36036.4120553789 
525, 36400.6875806817 
526, 36560.2520502691 
527, 36626.5059738265 
528, 36823.1378619065 
529, 37566.4415458401 
530, 38534.2550727014 
531, 39350.9148287669 
532, 39708.7663962036 
533, 39830.7820182865 
534, 40012.2566383363 
535, 40412.3963436865 
536, 41020.3901965846 
537, 41461.7267370212 
538, 41666.8626969323 
539, 41692.178075349 
540, 41684.8095009647 
541, 41728.3297367191 
542, 41947.0068616648 
543, 42440.5205604114 
544, 43002.7019618919 
545, 43493.9665712412 
546, 43838.7635583828 
547, 44040.1139062915 
548, 44171.7606294876 
549, 44322.8304386308 
550, 44551.4103714066 
551, 44791.7972553898 
552, 44976.882087751 
553, 45111.326783818 
554, 45255.3873788927 
555, 45366.9450887177 
556, 45331.2702401025 
557, 45085.2297308939 
558, 44673.6720198404 
559, 44325.2522514879 
560, 44171.7183610824 
561, 44257.6935994058 
562, 44468.2033763647 
563, 44594.3254498301 
564, 44534.8425868743 
565, 44326.277865169 
566, 44028.8246441935 
567, 43727.253706817 
568, 43473.2488965786 
569, 43216.1658432369 
570, 42880.2902770073 
571, 42561.9489136927 
572, 42449.856005061 
573, 42503.2332275572 
574, 42506.7331686994 
575, 42323.1290055852 
576, 41974.1610116786 
577, 41650.12452702 
578, 41478.3805022283 
579, 41528.3836413519 
580, 41745.9756452761 
581, 42122.6109496549 
582, 42577.3884315954 
583, 42963.6707999611 
584, 43210.0329592136 
585, 43206.5920809582 
586, 42939.1503455704 
587, 42611.6867708984 
588, 42212.8156973626 
589, 41674.0304237203 
590, 40992.3632096183 
591, 40763.3713109738 
592, 40967.0160328997 
593, 41321.4835345235 
594, 41303.2760950512 
595, 41092.4824221437 
596, 40792.2124699081 
597, 40473.8849522325 
598, 40126.6073829603 
599, 39705.2493069144 
600, 39245.6366074806 
601, 38840.2629894387 
602, 38528.5316877971 
603, 38362.3076987482 
604, 38338.5707159544 
605, 38376.1262134953 
606, 38292.3978214536 
607, 38079.3314444486 
608, 37806.9122493535 
609, 37537.5202386775 
610, 37283.5326521847 
611, 37055.758916489 
612, 36862.7762974208 
613, 36661.4898402721 
614, 36425.551933735 
615, 36166.0313945208 
616, 35965.1073192766 
617, 35842.0134748329 
618, 35846.9643125307 
619, 36007.8663606126 
620, 36178.8979629564 
621, 36203.7348873983 
622, 36031.1336836639 
623, 35739.5136397829 
624, 35405.9892212039 
625, 35091.1978572335 
626, 34828.2513690345 
627, 34599.0640606328 
628, 34374.795118391 
629, 34159.1213613449 
630, 33990.033246266 
631, 33998.0793588218 
632, 34111.7978500418 
633, 34259.1365466268 
634, 34417.7725601998 
635, 34540.2389934903 
636, 34624.4317082781 
637, 34680.6890253272 
638, 34698.4442464673 
639, 34646.7525874296 
640, 34497.8325876645 
641, 34242.0802675075 
642, 34045.9654438606 
643, 33932.1084677357 
644, 33862.0256512463 
645, 33736.5410119117 
646, 33537.6889060961 
647, 33286.5424480616 
648, 33029.9767006586 
649, 32818.1905328483 
650, 32648.429712539 
651, 32553.6490451927 
652, 32593.0462313795 
653, 32518.8423553422 
654, 32157.2543538145 
655, 31477.5135281824 
656, 30686.2005935006 
657, 30113.7014561533 
658, 30116.9851110722 
659, 30880.1564924946 
660, 31660.2995196377 
661, 32107.6729078858 
662, 32198.2664941166 
663, 32246.1401037278 
664, 32217.5206192134 
665, 32168.134677858 
666, 32148.1916156965 
667, 32161.7901264873 
668, 32153.0444300518 
669, 32122.0216806647 
670, 32095.1417287682 
671, 32034.4741870346 
672, 31960.9660933109 
673, 31911.6788065143 
674, 31935.7835021506 
675, 31979.178497994 
676, 32013.1646143286 
677, 32027.3675294678 
678, 32047.4620136853 
679, 32058.7832597739 
680, 32057.7019878659 
681, 32046.5850117004 
682, 32029.7294006791 
683, 31959.5932862864 
684, 31696.8100284375 
685, 30987.5191726145 
686, 29735.5908611242 
687, 28056.0156253221 
688, 26361.1311433278 
689, 25671.0799747377 
690, 26206.8010545209 
691, 27498.8767772072 
692, 28669.7435310657 
693, 29703.7430859545 
694, 30460.6169845347 
695, 30918.6143433226 
696, 31217.5498261295 
697, 31457.8965544873 
698, 31613.9344260838 
699, 31641.3052621203 
700, 31574.8889208587 
701, 31504.3499110296 
702, 31499.8109404996 
703, 31609.22570443 
704, 31846.4478112107 
705, 32127.5452612654 
706, 32367.5785725068 
707, 32500.356515266 
708, 32604.8630018528 
709, 32697.2728598179 
710, 32778.0529996448 
711, 32856.4853489809 
712, 32907.73328761 
713, 32919.7523471924 
714, 32879.010233409 
715, 32728.5002795119 
716, 32342.4639206785 
717, 31662.0230482992 
718, 30724.4598221305 
719, 29929.8980649367 
720, 29622.441003978 
721, 29942.7080570641 
722, 30647.3636818486 
723, 31146.014377429 
724, 31233.2103547941 
725, 31011.6480227817 
726, 30962.1191006292 
727, 31036.3396170943 
728, 31141.2285362993 
729, 31198.4923960813 
730, 31375.6020633876 
731, 31709.3393343638 
732, 32169.9729487023 
733, 32663.4999367842 
734, 33085.2000485573 
735, 33349.4138399375 
736, 33417.267869129 
737, 33374.8600205433 
738, 33312.0458631752 
739, 33249.8007270557 
740, 33155.8477350386 
741, 33118.5235215117 
742, 33153.3428492999 
743, 33249.9811672655 
744, 33381.6327072636 
745, 33474.6158790547 
746, 33518.0328561554 
747, 33521.5678006475 
748, 33483.0645618811 
749, 33381.1003839376 
750, 33239.4833688443 
751, 33113.1015673372 
752, 33053.7586552533 
753, 33044.2354178219 
754, 33049.7610441696 
755, 33023.6078903672 
756, 32871.5516925682 
757, 32200.7402320937 
758, 30378.9336467511 
759, 26323.5603422967 
760, 20362.0289196845 
761, 14537.0950588247 
762, 11311.3158621418 
763, 11368.1437001904 
764, 13160.3841464198 
765, 15897.8149689067 
766, 19483.1327663613 
767, 23370.0932212819 
768, 26732.5058464127 
769, 29065.1602059562 
770, 30370.9657320426 
771, 31016.5308987933 
772, 31272.5434844815 
773, 31343.9764168956 
774, 31340.7091988615 
775, 31279.6268422424 
776, 31194.8662642421 
777, 31111.6070216296 
778, 30997.7423739086 
779, 30857.971388352 
780, 30716.3836907254 
781, 30605.1892233599 
782, 30483.7249849655 
783, 30334.5703257745 
784, 30161.5536047078 
785, 29994.0693199305 
786, 29829.5568459862 
787, 29638.3003715441 
788, 29395.0171054623 
789, 29105.7123374963 
790, 28793.4687500809 
791, 28466.7285744365 
792, 28131.7251567195 
793, 27809.9497522855 
794, 27549.6882248266 
795, 27380.4181211537 
796, 27303.6707920347 
797, 27250.7941857209 
798, 27148.9607251988 
799, 26965.1190042062 
800, 26718.6553614852 
801, 26450.824682175 
802, 26199.8567861832 
803, 25980.6916508637 
804, 25762.6305519229 
805, 25571.6985324101 
806, 25393.9596088052 
807, 25199.2455624937 
808, 24956.1399936768 
809, 24664.2689143511 
810, 24344.2501143763 
811, 24015.613943851 
812, 23628.3057731717 
813, 23119.5500581514 
814, 22477.0626809731 
815, 21748.1865795242 
816, 21058.5968348871 
817, 20503.6561662392 
818, 20145.7969392618 
819, 20008.3456629486 
820, 19950.2415032549 
821, 19863.5283304372 
822, 19702.9482641803 
823, 19527.6022414326 
824, 19405.1770447303 
825, 19404.1547968215 
826, 19509.0869487846 
827, 19454.8849585415 
828, 19242.0933373451 
829, 18960.165404867 
830, 18732.5099557875 
831, 18572.3817718374 
832, 18446.4537568428 
833, 18339.8323526775 
834, 18257.7008403482 
835, 18210.9774370915 
836, 18181.6881818442 
837, 18138.2973446287 
838, 18042.2001800831 
839, 17903.93565638 
840, 17739.6215268622 
841, 17562.2180203598 
842, 17375.5370167355 
843, 17184.2381186166 
844, 16995.3254330193 
845, 16812.7594165506 
846, 16637.5121441174 
847, 16419.263313413 
848, 16153.619130276 
849, 15858.1536097244 
850, 15562.1986858899 
851, 15217.8903996473 
852, 14861.6338281798 
853, 14563.3752631449 
854, 14341.7258776737 
855, 14163.878359516 
856, 14084.6291665528 
857, 14181.6675137044 
858, 14329.2723924038 
859, 14369.3772377052 
860, 14273.5074740118 
861, 14128.3420876173 
862, 13951.7806540376 
863, 13720.2665707707 
864, 13437.4372200671 
865, 13144.6023432429 
866, 12869.5792339413 
867, 12637.8837108878 
868, 12488.1796969046 
869, 12473.4197423803 
870, 12514.8428943465 
871, 12512.4525355184 
872, 12418.4197560545 
873, 12281.925442976 
874, 12135.0464193202 
875, 11988.2300849252 
876, 11842.9637083833 
877, 11698.9457169073 
878, 11561.321531765 
879, 11425.3198107218 
880, 11285.9081142606 
881, 11146.1598038105 
882, 11006.303161907 
883, 10873.4283007341 
884, 10751.4019543825 
885, 10628.0693188933 
886, 10493.7883134835 
887, 10352.2248585757 
888, 10211.9971071819 
889, 10075.3175443732 
890, 9939.7175972431 
891, 9789.94445484027 
892, 9607.23266817735 
893, 9385.79211149821 
894, 9127.78104281282 
895, 8840.63084819155 
896, 8536.13373369949 
897, 8227.54784958456 
898, 7934.54848150566 
899, 7686.29336422594 
900, 7510.370992061 
901, 7405.57234527556 
902, 7355.37060792599 
903, 7332.37228291051 
904, 7306.06570050302 
905, 7265.00382173611 
906, 7190.0925427034 
907, 7065.75943217957 
908, 6889.74769535151 
909, 6703.93477769697 
910, 6546.66730796113 
911, 6431.82836719174 
912, 6350.38120302354 
913, 6280.81651230348 
914, 6213.00853233025 
915, 6144.40084187804 
916, 6079.40223479518 
917, 6030.21839780826 
918, 5990.79812755255 
919, 5954.21186571814 
920, 5914.97353705754 
921, 5873.55502497929 
922, 5817.35015187746 
923, 5737.73902660962 
924, 5630.97277667175 
925, 5496.64553621843 
926, 5336.17048006749 
927, 5143.50480289199 
928, 4909.31179436215 
929, 4634.46964781629 
930, 4321.7213329464 
931, 3987.74191006535 
932, 3659.94815524826 
933, 3367.41418983661 
934, 3136.79011919853 
935, 2979.62370537854 
936, 2894.01948397106 
937, 2871.1921122882 
938, 2887.099068614 
939, 2918.02007417321 
940, 2945.7886602416 
941, 2968.32735955523 
942, 2972.82459023542 
943, 2947.38378682842 
944, 2888.92268458311 
945, 2814.19528077136 
946, 2753.87209162876 
947, 2716.76031614733 
948, 2699.06877780078 
949, 2694.986514156 
950, 2687.79631652743 
951, 2676.585316002 
952, 2664.38607266252 
953, 2648.22710157332 
954, 2633.32160438063 
955, 2619.8157687224 
956, 2608.22392909228 
957, 2602.43584415145 
958, 2595.88601493053 
959, 2592.80833418289 
960, 2594.83178880126 
961, 2596.10009786242 
962, 2597.70625345252 
963, 2602.60981671641 
964, 2610.10339645862 
965, 2615.11861782879 
966, 2618.19554469066 
967, 2615.93167539184 
968, 2608.69732199175 
969, 2599.46639478254 
970, 2582.12078240936 
971, 2560.25145597535 
972, 2532.16048686578 
973, 2493.71408789202 
974, 2448.81080493211 
975, 2403.70030075706 
976, 2359.44141633866 
977, 2316.96852333904 
978, 2287.0771220826 
979, 2261.01254830204 
980, 2237.43854608576 
981, 2216.24119107738 
982, 2193.78543236145 
983, 2169.35898602686 
984, 2143.92109441413 
985, 2116.82267799419 
986, 2084.55949275435 
987, 2051.41293644657 
988, 2017.05591844093 
989, 1981.12469942996 
990, 1944.23808613709 
991, 1907.70963648606 
992, 1870.55278332469 
993, 1833.29057999265 
994, 1796.93143272689 
995, 1758.50202244881 
996, 1722.64684480295 
997, 1685.5849189768 
998, 1643.76352928007 
999, 1606.48155648266 
1000, 1568.3240977053 
1001, 9989.66126757842 
1002, 9991.88854900836 
1003, 9992.3969900113 
1004, 10001.8362322449 
1005, 10019.3653578553 
1006, 10041.7279130297 
1007, 10081.285815231 
1008, 10131.0244006782 
1009, 10180.4438326689 
1010, 10238.9976658485 
1011, 10300.7244517131 
1012, 10367.4104785519 
1013, 10426.5591568934 
1014, 10493.4525357494 
1015, 10554.9754997348 
1016, 10611.3967649273 
1017, 10674.5321410447 
1018, 10740.7825755082 
1019, 10814.7020883239 
1020, 10892.4235596511 
1021, 10971.8092166206 
1022, 11047.0131460868 
1023, 11123.4465079552 
1024, 11193.0463614619 
1025, 11262.6782405717 
1026, 11328.0081765259 
1027, 11396.1176469131 
1028, 11473.6336166697 
1029, 11546.177516234 
1030, 11614.2567351797 
1031, 11676.6818232868 
1032, 11723.9751936237 
1033, 11760.9570959599 
1034, 11796.4998741161 
1035, 11835.5846903445 
1036, 11875.5057711427 
1037, 11914.2828325123 
1038, 11950.802512063 
1039, 11986.4332271514 
1040, 12008.3797850863 
1041, 12023.5451746566 
1042, 12042.6957267268 
1043, 12049.1361344321 
1044, 12054.586428641 
1045, 12064.7728019695 
1046, 12068.5396127141 
1047, 12077.550388865 
1048, 12089.7912644952 
1049, 12104.2965384096 
1050, 12121.4906105053 
1051, 12138.9058961393 
1052, 12153.8120402082 
1053, 12170.2232662974 
1054, 12177.6118741892 
1055, 12188.4795498857 
1056, 12203.3114643489 
1057, 12219.5999547698 
1058, 12246.318747823 
1059, 12281.2164663819 
1060, 12329.2891069994 
1061, 12393.1050626468 
1062, 12459.1255746587 
1063, 12535.9166868626 
1064, 12615.1297011385 
1065, 12697.6138400375 
1066, 12781.4071776745 
1067, 12862.610409863 
1068, 12956.5443313753 
1069, 13068.9028854607 
1070, 13195.2057012365 
1071, 13344.6701354284 
1072, 13502.9779700853 
1073, 13655.9908324553 
1074, 13819.8348858668 
1075, 13961.8749140104 
1076, 14095.105381921 
1077, 14226.4274113397 
1078, 14341.3505016392 
1079, 14446.1082329174 
1080, 14541.6092723261 
1081, 14631.1435045417 
1082, 14711.6001959377 
1083, 14787.8740322822 
1084, 14868.6896772688 
1085, 14943.0383747351 
1086, 15010.7389619108 
1087, 15077.3727520378 
1088, 15128.6480573926 
1089, 15176.046967535 
1090, 15205.5822457892 
1091, 15220.2723738786 
1092, 15223.0203890579 
1093, 15208.876414192 
1094, 15184.6721845994 
1095, 15158.1557049543 
1096, 15131.1319241802 
1097, 15111.4765745238 
1098, 15086.6582900054 
1099, 15063.3604390483 
1100, 15041.6090558465 
1101, 15016.712559605 
1102, 14999.1342734327 
1103, 14964.4860430209 
1104, 14933.4049797699 
1105, 14874.088929528 
1106, 14798.1835177725 
1107, 14687.0243325454 
1108, 14522.1785126125 
1109, 14305.5825678172 
1110, 14003.0637743259 
1111, 13629.3031040692 
1112, 13186.7819628009 
1113, 12639.4021324796 
1114, 12099.4976096093 
1115, 11468.0675672793 
1116, 10898.958130169 
1117, 10284.7072309058 
1118, 9764.30569557586 
1119, 9283.69044590819 
1120, 8845.29730223228 
1121, 8486.01939157227 
1122, 8196.42961628528 
1123, 7983.77762141228 
1124, 7841.94444574351 
1125, 7780.18015936432 
1126, 7825.01398398544 
1127, 7874.93666578088 
1128, 8005.7323004984 
1129, 8126.72889057295 
1130, 8282.73435844788 
1131, 8435.82439999669 
1132, 8586.96495318055 
1133, 8773.18090895229 
1134, 8968.42901362417 
1135, 9186.141695419 
1136, 9498.22491877763 
1137, 9817.13911390185 
1138, 10130.9049973323 
1139, 10426.7830437298 
1140, 10624.3356846592 
1141, 10761.8625890876 
1142, 10835.8766265608 
1143, 10805.9955341252 
1144, 10801.6486823988 
1145, 10670.8617592133 
1146, 10687.1419945377 
1147, 10707.1741908435 
1148, 10842.7661584781 
1149, 11086.7338606825 
1150, 11384.3900971142 
1151, 11774.166420732 
1152, 12208.1354127429 
1153, 12656.0737658272 
1154, 13171.6905887897 
1155, 13659.5902475059 
1156, 14170.2346111822 
1157, 14656.2724480112 
1158, 15151.3203409299 
1159, 15614.0097688394 
1160, 16067.8111733836 
1161, 16487.3500474749 
1162, 16887.7264570071 
1163, 17256.9552352861 
1164, 17598.8550726562 
1165, 17906.712251544 
1166, 18193.5007228953 
1167, 18442.9259299411 
1168, 18657.7932284496 
1169, 18838.5998979655 
1170, 18990.7482759856 
1171, 19102.9663625757 
1172, 19199.6871216588 
1173, 19263.8000130039 
1174, 19317.8031032843 
1175, 19348.5552682919 
1176, 19367.1605529303 
1177, 19357.9538042941 
