Wavelength,0212202100009.asd
350, 166.093249670652 
351, 173.272412825047 
352, 179.401315220337 
353, 186.851923454072 
354, 193.79261622847 
355, 200.211606696245 
356, 206.566687883652 
357, 213.213354795409 
358, 219.869992999056 
359, 227.65710043597 
360, 237.857878872727 
361, 248.651522482169 
362, 259.899757503787 
363, 272.007348894384 
364, 285.584566711017 
365, 297.906919105327 
366, 309.306417309326 
367, 319.609551644895 
368, 326.593137512005 
369, 330.583411201989 
370, 332.976682383289 
371, 334.528284893203 
372, 331.310195201499 
373, 330.197667043506 
374, 331.817576390176 
375, 332.549460374023 
376, 332.648888776047 
377, 333.245298760072 
378, 333.668710036905 
379, 330.741278945952 
380, 325.693099857182 
381, 319.875290779663 
382, 314.422548932793 
383, 309.585824738377 
384, 304.980475515815 
385, 301.459659386153 
386, 301.056941850315 
387, 309.282189810913 
388, 317.925927996392 
389, 322.709221824501 
390, 324.935674182515 
391, 329.139664200286 
392, 332.002195181789 
393, 332.432363765171 
394, 337.663950868083 
395, 347.587372497476 
396, 362.714232420643 
397, 383.636390066428 
398, 411.863732010102 
399, 445.169742876132 
400, 480.237439712453 
401, 513.227031998683 
402, 543.98800113017 
403, 569.316850571235 
404, 587.922721089423 
405, 602.589658944202 
406, 613.349750710158 
407, 623.833913814025 
408, 637.546156373917 
409, 652.404008853636 
410, 669.722416034523 
411, 689.48771052971 
412, 710.614222369411 
413, 733.360703972194 
414, 754.732070200374 
415, 773.306367573669 
416, 790.998335468412 
417, 807.796744065802 
418, 825.378109305614 
419, 844.314840755572 
420, 858.921716468933 
421, 874.770455682316 
422, 892.62304038548 
423, 909.520731203724 
424, 924.956644674614 
425, 937.825354890231 
426, 945.797129745199 
427, 944.216731076499 
428, 942.175283109783 
429, 945.578530285336 
430, 957.480763757743 
431, 974.503480934272 
432, 998.027436512182 
433, 1032.86036077346 
434, 1083.78496127607 
435, 1132.58988671717 
436, 1169.49223135798 
437, 1194.87912537815 
438, 1223.41368747933 
439, 1250.73874140036 
440, 1275.72527024717 
441, 1299.28019851976 
442, 1327.61631583433 
443, 1357.78953768621 
444, 1386.13946538653 
445, 1409.09827243782 
446, 1428.00523914301 
447, 1445.97473052488 
448, 1465.04361057091 
449, 1485.03482780231 
450, 1502.29816619324 
451, 1511.18853464448 
452, 1508.48545579441 
453, 1503.73004253312 
454, 1495.10919147369 
455, 1484.88012857788 
456, 1478.92524761925 
457, 1478.03491306426 
458, 1478.53163976658 
459, 1476.92828096158 
460, 1471.91922263669 
461, 1465.80284840436 
462, 1459.73840544103 
463, 1453.57740065412 
464, 1443.47375061379 
465, 1427.72134210403 
466, 1408.3719240316 
467, 1391.02470551069 
468, 1377.12868925845 
469, 1366.68439746738 
470, 1360.13281672877 
471, 1361.31276194434 
472, 1360.58549434185 
473, 1358.24112108719 
474, 1358.64760228623 
475, 1358.30846017092 
476, 1357.63589365899 
477, 1357.36454851782 
478, 1358.20758395838 
479, 1362.36179343047 
480, 1367.89423775025 
481, 1371.4979954794 
482, 1370.40632335474 
483, 1358.62337613533 
484, 1334.99665724788 
485, 1302.97512996919 
486, 1272.56973476163 
487, 1252.40738602705 
488, 1248.82646449299 
489, 1266.01638214071 
490, 1288.36419172094 
491, 1304.96624409305 
492, 1310.52179445313 
493, 1313.00177279152 
494, 1317.94073277953 
495, 1326.59436080148 
496, 1335.98669493946 
497, 1337.1566747353 
498, 1332.53742656484 
499, 1325.14026197197 
500, 1313.80911418265 
501, 1306.48606466024 
502, 1303.99106205204 
503, 1305.46777472459 
504, 1318.98166136038 
505, 1335.96063389103 
506, 1351.27495815427 
507, 1364.75695029528 
508, 1374.0977663658 
509, 1381.41123553408 
510, 1389.50311101301 
511, 1400.77174526102 
512, 1407.97431649654 
513, 1408.08535979426 
514, 1400.99461614051 
515, 1388.39083209864 
516, 1372.57547970285 
517, 1357.66432397199 
518, 1349.70433480546 
519, 1364.76999603953 
520, 1400.54968497067 
521, 1445.68176251079 
522, 1482.39445015777 
523, 1510.31004135026 
524, 1530.31169022282 
525, 1543.99112165087 
526, 1548.81546080406 
527, 1550.4518973976 
528, 1559.21010609338 
529, 1593.88731140817 
530, 1635.30331799179 
531, 1667.16095773689 
532, 1678.8512205961 
533, 1684.44959260787 
534, 1693.71152585879 
535, 1711.35550941694 
536, 1736.34267277121 
537, 1753.47354426395 
538, 1760.70837002596 
539, 1760.90758388066 
540, 1759.13006965719 
541, 1761.61613987101 
542, 1773.20734016442 
543, 1795.70713766632 
544, 1817.75851664835 
545, 1837.21127077422 
546, 1852.01319374605 
547, 1858.08858296457 
548, 1863.77329753805 
549, 1871.02216381316 
550, 1879.50698339697 
551, 1889.21181558953 
552, 1896.24228253753 
553, 1900.38962549411 
554, 1904.63154001788 
555, 1910.84412842613 
556, 1909.55923384219 
557, 1896.12228881162 
558, 1879.7304375758 
559, 1866.71012775361 
560, 1861.18141015032 
561, 1864.57699848105 
562, 1873.85281853654 
563, 1879.02359989642 
564, 1875.01696193312 
565, 1863.33240229584 
566, 1850.89261293051 
567, 1839.84094192086 
568, 1829.95527712191 
569, 1818.68101943215 
570, 1804.41832816472 
571, 1791.09455247886 
572, 1785.71312772921 
573, 1789.24546240002 
574, 1790.37210120696 
575, 1781.75568758601 
576, 1764.86389321322 
577, 1750.58521960471 
578, 1743.59628402326 
579, 1745.45151396017 
580, 1755.68877350573 
581, 1773.68317516944 
582, 1793.92285065551 
583, 1807.0477387796 
584, 1817.67648577805 
585, 1817.57151636134 
586, 1803.64857759721 
587, 1790.28974809512 
588, 1774.23185486876 
589, 1750.64766001643 
590, 1719.09303801883 
591, 1713.16386628311 
592, 1725.25004426519 
593, 1740.00505189306 
594, 1737.92253014378 
595, 1727.69393927467 
596, 1714.65668512483 
597, 1701.83291584709 
598, 1686.10906625497 
599, 1666.34498376345 
600, 1646.01517340449 
601, 1631.16140848669 
602, 1618.72075740572 
603, 1612.06015028938 
604, 1611.89207262805 
605, 1613.48505858879 
606, 1609.17531587706 
607, 1600.73378754816 
608, 1592.10025383766 
609, 1577.78079820447 
610, 1564.97557043201 
611, 1556.82765861364 
612, 1551.69341286634 
613, 1542.75344704562 
614, 1531.37126348759 
615, 1520.543869099 
616, 1512.50918999441 
617, 1507.33536397266 
618, 1507.30902979224 
619, 1514.19667795933 
620, 1521.77136074056 
621, 1523.3032550147 
622, 1515.94552328008 
623, 1501.69025325512 
624, 1487.21276812537 
625, 1474.69497227323 
626, 1464.31517796364 
627, 1455.05579169574 
628, 1444.37558920415 
629, 1433.85797286333 
630, 1427.91060553135 
631, 1430.20293362162 
632, 1435.65184961205 
633, 1441.09984525356 
634, 1448.77968780515 
635, 1453.5851633849 
636, 1456.33102693579 
637, 1459.06300245993 
638, 1460.44660959246 
639, 1458.10688992012 
640, 1451.28635564635 
641, 1441.07837546383 
642, 1433.00970976188 
643, 1428.06812436281 
644, 1425.02496156083 
645, 1420.37394036344 
646, 1412.38472668267 
647, 1401.70327224831 
648, 1390.46983036484 
649, 1381.43375325602 
650, 1374.06002328103 
651, 1370.4630879777 
652, 1374.85298577212 
653, 1372.48652578543 
654, 1356.19580307395 
655, 1325.46467508704 
656, 1288.17944528005 
657, 1263.12975967706 
658, 1267.88767482164 
659, 1309.02363285994 
660, 1339.82778794081 
661, 1354.25830728011 
662, 1356.68215920034 
663, 1358.99661858995 
664, 1357.5465592735 
665, 1355.30070664651 
666, 1354.95087478432 
667, 1354.70211667375 
668, 1354.23729318068 
669, 1353.88052383821 
670, 1353.83882599647 
671, 1350.15912622147 
672, 1346.49310616202 
673, 1345.4021997457 
674, 1346.82214244008 
675, 1348.91119294736 
676, 1350.45499286381 
677, 1350.93289247504 
678, 1351.2449689151 
679, 1351.19231341261 
680, 1351.64928421955 
681, 1353.39191188415 
682, 1351.39410605714 
683, 1345.80103422584 
684, 1333.469582887 
685, 1305.9833822695 
686, 1252.18906226092 
687, 1176.54632442575 
688, 1100.56970574614 
689, 1079.95486554569 
690, 1109.71108417287 
691, 1166.1451029508 
692, 1215.71284059937 
693, 1259.75366392799 
694, 1291.33377365885 
695, 1309.34284702761 
696, 1321.32032665255 
697, 1332.38381885215 
698, 1338.85771619923 
699, 1337.30876587995 
700, 1334.75237718495 
701, 1332.51595194942 
702, 1332.96728247909 
703, 1338.65019538415 
704, 1349.35577327074 
705, 1361.54273069762 
706, 1371.67466820546 
707, 1376.92239709578 
708, 1380.94850747416 
709, 1384.66695811588 
710, 1388.45999622028 
711, 1393.96248878113 
712, 1396.25503729677 
713, 1396.03077845293 
714, 1396.19977586352 
715, 1390.4067864137 
716, 1375.01745008137 
717, 1348.05546496671 
718, 1309.40368309007 
719, 1276.78002856973 
720, 1266.35435535498 
721, 1284.18838197356 
722, 1315.6579326481 
723, 1334.82445219487 
724, 1336.4446521447 
725, 1329.29706448783 
726, 1328.7275829661 
727, 1332.95560189921 
728, 1337.7748684257 
729, 1338.78846771935 
730, 1347.12363444561 
731, 1362.54566251884 
732, 1382.06966164198 
733, 1403.11484399932 
734, 1421.0213332085 
735, 1431.96498213104 
736, 1434.19857821393 
737, 1431.69424536029 
738, 1429.4070245482 
739, 1427.94563805204 
740, 1424.46335147787 
741, 1422.68722580769 
742, 1423.68754421242 
743, 1427.54701840965 
744, 1433.66863394618 
745, 1438.22464229645 
746, 1440.1014953297 
747, 1439.78508108141 
748, 1439.84513695519 
749, 1436.41398651249 
750, 1429.90819957313 
751, 1423.75384160688 
752, 1421.4673525399 
753, 1421.64564514371 
754, 1422.16458612749 
755, 1420.78359824722 
756, 1415.79106366752 
757, 1387.98406679564 
758, 1306.88844041139 
759, 1122.37228620437 
760, 853.663927763468 
761, 600.815095971012 
762, 478.155811006653 
763, 494.594803811186 
764, 578.073667767701 
765, 697.221372270248 
766, 855.585997687934 
767, 1023.94644660392 
768, 1166.57873998168 
769, 1262.80034555454 
770, 1314.42158643687 
771, 1339.75404628614 
772, 1349.37458233943 
773, 1350.81625788182 
774, 1350.00533580683 
775, 1347.73347610202 
776, 1345.14258816334 
777, 1342.58062995342 
778, 1336.90959043457 
779, 1331.364651282 
780, 1326.61833644869 
781, 1321.01104978149 
782, 1316.88266923239 
783, 1310.51840786638 
784, 1301.3022630074 
785, 1294.53571119486 
786, 1287.93398329719 
787, 1280.06563736785 
788, 1270.16942614263 
789, 1259.07662266788 
790, 1244.73060946699 
791, 1228.86999112637 
792, 1214.48933098959 
793, 1201.34457799501 
794, 1191.36690159951 
795, 1185.39270190137 
796, 1182.81968815317 
797, 1179.90212418665 
798, 1175.19765483907 
799, 1167.57443921249 
800, 1156.00888253229 
801, 1145.06595441541 
802, 1135.52026746063 
803, 1126.88122084036 
804, 1118.08068021403 
805, 1109.32769343828 
806, 1101.01579823213 
807, 1093.057969505 
808, 1083.61396952583 
809, 1071.10061602564 
810, 1057.26878561635 
811, 1044.53628032171 
812, 1027.35212048318 
813, 1005.06441617623 
814, 978.089462971184 
815, 947.822083299163 
816, 917.894084076541 
817, 894.082954243592 
818, 879.862837745617 
819, 874.939622127185 
820, 871.938156655707 
821, 867.148187856542 
822, 860.147419963414 
823, 855.109864712927 
824, 851.860690729025 
825, 851.473525975609 
826, 853.375578646707 
827, 851.115608693724 
828, 842.980789276559 
829, 831.357995557929 
830, 820.815840688668 
831, 813.995409940014 
832, 808.624855180551 
833, 803.642106719153 
834, 799.574692016891 
835, 799.361055850138 
836, 798.318574573537 
837, 794.42785015342 
838, 789.840877244848 
839, 783.758337826305 
840, 776.366814281311 
841, 768.322530424534 
842, 760.728905538684 
843, 752.441332973757 
844, 744.249603712737 
845, 736.617769127102 
846, 728.111272325077 
847, 718.731442989944 
848, 708.198669833713 
849, 696.130811008096 
850, 681.896336460696 
851, 666.269146411587 
852, 651.26550147251 
853, 639.070364142637 
854, 629.861989464007 
855, 622.559195956328 
856, 619.385105937022 
857, 623.541334412531 
858, 631.907246433015 
859, 633.251732326907 
860, 626.657446608958 
861, 620.13057659775 
862, 611.189783484631 
863, 601.961054807618 
864, 592.428418046284 
865, 579.975910309642 
866, 566.149701865004 
867, 556.013301568265 
868, 551.612276228936 
869, 549.899042287176 
870, 550.273581990037 
871, 549.652316788079 
872, 546.157266635331 
873, 540.7930436468 
874, 535.241445414104 
875, 529.054510778389 
876, 522.115331752694 
877, 516.452434880826 
878, 509.99872764722 
879, 503.757709207694 
880, 498.546962273723 
881, 491.976066495247 
882, 486.343765973451 
883, 480.459830070039 
884, 473.350180437325 
885, 468.954815942765 
886, 464.178989227347 
887, 457.317807033587 
888, 448.953425808133 
889, 445.659127525308 
890, 440.439223179248 
891, 432.334570152773 
892, 423.449373181578 
893, 414.421950620394 
894, 404.338871051277 
895, 392.60503197062 
896, 379.382350871921 
897, 366.909736724337 
898, 354.816189774702 
899, 344.218573042858 
900, 336.730912379878 
901, 331.315729197768 
902, 329.915028893341 
903, 330.226525407611 
904, 328.080214527136 
905, 325.774248029052 
906, 322.444080763183 
907, 317.140079277798 
908, 309.45901319866 
909, 301.024028593525 
910, 294.363472234976 
911, 290.251532965827 
912, 287.649109800685 
913, 283.693585458119 
914, 280.274250424898 
915, 277.684474239087 
916, 274.836914259411 
917, 271.54718630039 
918, 269.956607347278 
919, 268.93996499385 
920, 265.892901449544 
921, 265.360455464784 
922, 263.20926231463 
923, 258.759966897884 
924, 253.942965846712 
925, 247.454719629771 
926, 240.202953572432 
927, 231.914517265452 
928, 221.673965883275 
929, 210.362504182742 
930, 196.246492580933 
931, 180.806599861267 
932, 167.161362140833 
933, 155.117156516257 
934, 145.1394104373 
935, 138.549865889307 
936, 136.064824249535 
937, 133.861378386498 
938, 134.078972701204 
939, 135.681978184962 
940, 136.624635285392 
941, 138.55821858833 
942, 138.183414837774 
943, 136.485073763436 
944, 135.317477480074 
945, 131.877661506963 
946, 128.025455177651 
947, 125.550626669165 
948, 125.053374587422 
949, 123.925585353611 
950, 124.480308440412 
951, 124.99286581049 
952, 124.0548554967 
953, 124.298997679325 
954, 123.571650589572 
955, 122.528604461643 
956, 121.729356751228 
957, 120.044988862414 
958, 120.758971800899 
959, 121.01312657944 
960, 120.049840894996 
961, 122.039554743275 
962, 121.290009693911 
963, 120.308355133026 
964, 120.687522954642 
965, 121.058882253534 
966, 121.126989573132 
967, 120.751896473767 
968, 119.584945940202 
969, 117.655151377696 
970, 119.144145406671 
971, 119.006816998332 
972, 116.278103127463 
973, 113.662564056169 
974, 113.874382550768 
975, 112.513400542418 
976, 110.024876654372 
977, 108.656557999245 
978, 107.256513666124 
979, 104.939146511487 
980, 102.971106126894 
981, 102.392983621997 
982, 101.791789565572 
983, 101.999732181332 
984, 100.269215867948 
985, 96.3331486147092 
986, 94.8302617876713 
987, 94.6638775243062 
988, 93.5685154243396 
989, 91.5427390425533 
990, 90.6779973236807 
991, 87.3083974204401 
992, 85.740828397174 
993, 85.710738238897 
994, 83.8843431604694 
995, 81.5988654584145 
996, 80.5575880798631 
997, 80.2176753515134 
998, 79.3088933433923 
999, 78.0704988678203 
1000, 74.4305943356448 
1001, 437.45834925148 
1002, 443.393383275401 
1003, 446.271326315072 
1004, 451.230845217169 
1005, 455.243329336389 
1006, 454.00480203556 
1007, 456.03014747541 
1008, 454.844986186279 
1009, 454.908389865028 
1010, 454.1135765142 
1011, 457.795586864789 
1012, 463.140437057965 
1013, 469.081947049615 
1014, 479.047842233695 
1015, 486.589106410695 
1016, 485.172733440031 
1017, 484.079784828523 
1018, 481.303607677605 
1019, 480.913667292867 
1020, 490.79166184395 
1021, 497.450653986282 
1022, 499.681758109931 
1023, 501.47608320634 
1024, 500.37386232745 
1025, 495.031222720462 
1026, 497.08166839457 
1027, 507.407860751901 
1028, 516.372796754211 
1029, 521.045214907711 
1030, 523.983319557362 
1031, 524.980558522026 
1032, 527.274384307144 
1033, 529.697998484279 
1034, 531.350301758687 
1035, 532.866194951011 
1036, 535.453670651142 
1037, 531.01213648365 
1038, 527.616462444124 
1039, 528.481451236303 
1040, 523.91311172694 
1041, 526.926394347438 
1042, 534.794640138905 
1043, 532.63408374843 
1044, 538.949302624606 
1045, 549.141105528933 
1046, 546.066364071609 
1047, 545.432579191506 
1048, 547.855107563394 
1049, 545.338147597783 
1050, 534.131279674158 
1051, 533.257857603771 
1052, 540.636783281888 
1053, 543.730266898614 
1054, 546.170176289139 
1055, 553.532467114707 
1056, 548.890694395992 
1057, 541.434994965842 
1058, 545.099329286815 
1059, 545.826154316962 
1060, 549.295805856722 
1061, 562.753143693919 
1062, 568.25406514613 
1063, 568.760313033054 
1064, 573.781667611856 
1065, 573.989391527809 
1066, 563.686576298005 
1067, 572.335763145313 
1068, 577.217363920785 
1069, 579.889726664352 
1070, 596.796179553009 
1071, 609.026376507031 
1072, 615.693766651276 
1073, 622.258452881077 
1074, 630.179307604219 
1075, 635.441437627259 
1076, 634.838642820583 
1077, 640.795104793388 
1078, 647.619676730996 
1079, 651.96515643654 
1080, 657.445718543047 
1081, 658.03509620747 
1082, 662.56595971362 
1083, 667.775871676849 
1084, 662.180342102171 
1085, 661.899954141674 
1086, 664.716256295078 
1087, 665.528619608846 
1088, 667.585477678895 
1089, 677.738258816261 
1090, 681.743652066275 
1091, 680.074937348415 
1092, 681.914287807069 
1093, 683.468091927338 
1094, 687.682504731179 
1095, 688.633937376109 
1096, 685.496654820523 
1097, 687.357629845441 
1098, 686.956294876727 
1099, 684.868148958448 
1100, 683.596462315566 
1101, 681.026674957965 
1102, 670.078519525276 
1103, 668.871627311658 
1104, 674.355474998004 
1105, 676.269026342754 
1106, 680.561403485366 
1107, 681.60519471904 
1108, 664.812959482388 
1109, 645.562135896948 
1110, 628.91949641691 
1111, 611.897939902648 
1112, 594.115081226834 
1113, 584.606371264038 
1114, 562.119186700421 
1115, 528.035428914218 
1116, 499.748270933463 
1117, 464.628205368994 
1118, 437.389899476609 
1119, 412.285051676161 
1120, 393.411645805427 
1121, 380.761494066901 
1122, 373.417856384176 
1123, 365.443359644036 
1124, 355.798303381759 
1125, 353.377777731523 
1126, 353.670352253798 
1127, 353.893154820229 
1128, 361.147120041921 
1129, 365.72159784413 
1130, 363.194872118006 
1131, 370.688778659766 
1132, 386.576603000374 
1133, 399.047219713169 
1134, 415.292815387505 
1135, 431.351587757213 
1136, 441.328168236256 
1137, 452.023405672199 
1138, 459.914775832578 
1139, 463.386213569729 
1140, 468.521391188698 
1141, 472.284121890059 
1142, 475.346841599872 
1143, 479.00658259671 
1144, 480.894482179961 
1145, 477.32913056731 
1146, 480.33283680288 
1147, 482.325725814122 
1148, 490.676877648452 
1149, 507.059984303351 
1150, 520.863517350466 
1151, 540.547575117625 
1152, 558.638855877481 
1153, 578.294818466854 
1154, 600.295637872326 
1155, 620.919085291333 
1156, 641.415868557953 
1157, 664.446722701007 
1158, 689.87979695451 
1159, 709.715782662198 
1160, 729.743863679493 
1161, 747.577562177029 
1162, 760.231539568806 
1163, 774.141449479501 
1164, 791.239572447775 
1165, 801.668220485414 
1166, 811.04608483302 
1167, 822.30428137545 
1168, 830.658041397892 
1169, 836.911807452306 
1170, 844.688134449105 
1171, 852.780699252401 
1172, 857.612740344009 
1173, 862.988904866108 
1174, 865.114278021588 
1175, 861.061503681591 
1176, 860.878334125931 
1177, 859.989291877225 
