Wavelength,0212202100139.asd
350, 2930.45433892913 
351, 3082.45456523416 
352, 3223.17897747451 
353, 3343.65836542289 
354, 3459.33602935655 
355, 3580.47553519394 
356, 3710.60620117876 
357, 3838.39067311599 
358, 3970.89310446294 
359, 4112.60825237588 
360, 4269.25562022869 
361, 4458.50074857742 
362, 4677.24592405798 
363, 4915.35933903921 
364, 5158.19297662494 
365, 5404.70589128401 
366, 5639.11654288693 
367, 5843.46613662679 
368, 6001.51301911274 
369, 6095.57582882109 
370, 6130.42373786039 
371, 6123.85700615733 
372, 6098.57160544642 
373, 6090.37221096292 
374, 6103.09193704866 
375, 6118.21701181587 
376, 6135.69543314757 
377, 6147.502148829 
378, 6137.47068934328 
379, 6080.55478954463 
380, 6009.93451038543 
381, 5931.75764003827 
382, 5842.6321983147 
383, 5730.06001217386 
384, 5616.15152105053 
385, 5537.50905263866 
386, 5537.01523701484 
387, 5653.6430910093 
388, 5821.20402748867 
389, 5966.90175535755 
390, 6029.50722861624 
391, 6098.09836681916 
392, 6166.90634550354 
393, 6223.02619966178 
394, 6269.96008661046 
395, 6400.7755222394 
396, 6657.9585207738 
397, 7057.91876336687 
398, 7617.84539592608 
399, 8255.95072496641 
400, 8911.25870819148 
401, 9548.30543900135 
402, 10156.0475018714 
403, 10657.3329968412 
404, 11018.8197997102 
405, 11300.8226220005 
406, 11524.7169706158 
407, 11724.3344661853 
408, 11941.6833707666 
409, 12239.2421186023 
410, 12596.4237581363 
411, 12990.4300321167 
412, 13399.0083795047 
413, 13807.6837321365 
414, 14212.5280319581 
415, 14601.3109599493 
416, 14942.7460132825 
417, 15266.3137498931 
418, 15597.622778776 
419, 15944.1026744197 
420, 16246.9293088405 
421, 16552.6185043444 
422, 16885.5602521602 
423, 17244.3725596535 
424, 17574.6553394324 
425, 17836.6336467038 
426, 17993.8587028615 
427, 18006.5129104834 
428, 17941.1526515693 
429, 17956.8389408588 
430, 18180.8684783701 
431, 18508.8343105926 
432, 18939.8277360957 
433, 19574.2978892815 
434, 20542.5097766909 
435, 21562.1760118537 
436, 22340.7349816064 
437, 22821.6156852815 
438, 23330.7808594825 
439, 23855.1199327393 
440, 24349.8246870568 
441, 24797.088716834 
442, 25378.3835117898 
443, 25990.2050415371 
444, 26551.1467501628 
445, 27010.3858626675 
446, 27377.8535813813 
447, 27709.9860773523 
448, 28065.2983660275 
449, 28501.5583130457 
450, 28870.6359797463 
451, 29070.9145595296 
452, 29064.1057140186 
453, 28993.6290382646 
454, 28832.7989182761 
455, 28626.9189695081 
456, 28486.2074470726 
457, 28455.3191014422 
458, 28466.9066556712 
459, 28450.444257987 
460, 28377.0481371367 
461, 28267.2452543235 
462, 28148.1259266441 
463, 28032.515277879 
464, 27848.1644663769 
465, 27563.0510250286 
466, 27212.4547523364 
467, 26894.9116579013 
468, 26623.2113460454 
469, 26419.2296942502 
470, 26295.4654995091 
471, 26253.9992497459 
472, 26228.4195861842 
473, 26224.031907988 
474, 26265.9001213783 
475, 26260.5937013847 
476, 26235.5673540916 
477, 26221.0144997038 
478, 26235.7640692538 
479, 26323.5065859245 
480, 26444.9224998859 
481, 26530.6632495089 
482, 26511.1547679284 
483, 26314.5473248041 
484, 25900.4125224344 
485, 25284.2017183512 
486, 24686.2112503084 
487, 24261.9486414291 
488, 24137.4790627204 
489, 24423.7078059642 
490, 24877.2620916955 
491, 25250.7182056926 
492, 25384.3530370966 
493, 25434.5805463758 
494, 25508.554801141 
495, 25654.4593468013 
496, 25853.7209970803 
497, 25916.4736727874 
498, 25845.5488615485 
499, 25684.3500238752 
500, 25468.3074089408 
501, 25303.5485166007 
502, 25237.0206337266 
503, 25291.2951821374 
504, 25527.1575373241 
505, 25855.3005622353 
506, 26188.3011446457 
507, 26456.0669011241 
508, 26663.4289787672 
509, 26826.0082104378 
510, 26974.7443312299 
511, 27179.1738584108 
512, 27320.096591046 
513, 27346.7150747262 
514, 27250.9676730011 
515, 27029.6011552578 
516, 26729.2106084075 
517, 26434.3221492472 
518, 26264.7089658443 
519, 26491.0427365914 
520, 27133.8979244219 
521, 28036.7131836567 
522, 28791.0574838075 
523, 29354.5222765237 
524, 29750.014522311 
525, 30044.0528924089 
526, 30172.6846223401 
527, 30224.9868338328 
528, 30383.2738095482 
529, 30993.304981222 
530, 31788.4421557928 
531, 32458.9439860233 
532, 32751.6005742855 
533, 32851.0600088299 
534, 33001.1207629879 
535, 33332.3834712615 
536, 33834.2894699698 
537, 34198.201348118 
538, 34367.0647241988 
539, 34386.9645206842 
540, 34376.5182620152 
541, 34406.7834512728 
542, 34582.0677085107 
543, 34986.0286221025 
544, 35448.2431090589 
545, 35853.716816812 
546, 36138.6098326999 
547, 36301.1265881788 
548, 36408.9172698631 
549, 36535.3907535439 
550, 36725.755759254 
551, 36922.1393026812 
552, 37073.0135103501 
553, 37183.393706323 
554, 37301.5805281867 
555, 37390.7845957111 
556, 37357.5921700148 
557, 37151.5714975852 
558, 36811.5798633354 
559, 36518.5413601589 
560, 36384.7350151839 
561, 36453.1848291116 
562, 36618.5338521855 
563, 36714.3146193789 
564, 36659.0351542011 
565, 36478.7977328501 
566, 36224.6193217379 
567, 35965.3130682833 
568, 35742.8687362773 
569, 35517.800952562 
570, 35227.3853537291 
571, 34953.9723633172 
572, 34856.5601191648 
573, 34889.300852671 
574, 34882.2519810247 
575, 34726.9400383681 
576, 34436.509895525 
577, 34167.8102326703 
578, 34027.9188249138 
579, 34074.8941103621 
580, 34254.9901128259 
581, 34568.5717902785 
582, 34950.5457758736 
583, 35275.4533615748 
584, 35479.4576218941 
585, 35474.6695910656 
586, 35250.3321921473 
587, 34967.7150996764 
588, 34614.8744138799 
589, 34138.2659941987 
590, 33542.7925270887 
591, 33331.6385042907 
592, 33489.9809884662 
593, 33781.2774841774 
594, 33763.9702901516 
595, 33591.1277705353 
596, 33350.9510284008 
597, 33102.3491974709 
598, 32826.8877119383 
599, 32490.486850203 
600, 32122.9941618846 
601, 31798.8245633491 
602, 31547.6304767632 
603, 31412.247077546 
604, 31390.8812046254 
605, 31417.0149000766 
606, 31346.7652530308 
607, 31171.0655141035 
608, 30943.5587548649 
609, 30721.3440459054 
610, 30510.061876581 
611, 30319.204810853 
612, 30161.1307105614 
613, 29991.7932881077 
614, 29792.659622743 
615, 29575.6271248312 
616, 29404.1399607855 
617, 29298.1999731159 
618, 29297.7545905096 
619, 29422.2497856622 
620, 29551.8972398578 
621, 29563.5541307543 
622, 29415.5820432819 
623, 29166.3422461143 
624, 28884.9133351294 
625, 28617.2250045148 
626, 28386.2141589279 
627, 28179.2992753902 
628, 27973.0712703715 
629, 27776.7337381457 
630, 27630.3436626425 
631, 27639.1315193823 
632, 27734.283765317 
633, 27852.805806563 
634, 27984.7896386162 
635, 28083.5094765521 
636, 28149.4251362862 
637, 28194.7465998487 
638, 28207.4800963464 
639, 28159.7898714515 
640, 28030.8174651144 
641, 27817.5879520256 
642, 27650.2277437013 
643, 27549.0444336648 
644, 27482.7473534397 
645, 27364.2752661808 
646, 27180.5045096683 
647, 26950.547179335 
648, 26716.3094929697 
649, 26527.4698169989 
650, 26382.5442969143 
651, 26305.0058486219 
652, 26336.3132058518 
653, 26274.1449628793 
654, 25978.6713393376 
655, 25426.4598944156 
656, 24785.8070045579 
657, 24322.7725966782 
658, 24326.4468366697 
659, 24946.184548171 
660, 25577.7196769247 
661, 25938.1260708572 
662, 26008.196474478 
663, 26042.1142434423 
664, 26014.5946828611 
665, 25968.9748218106 
666, 25944.4864186042 
667, 25946.4987079538 
668, 25932.8581757929 
669, 25903.5853711737 
670, 25877.8137572621 
671, 25821.1407838676 
672, 25755.2299497932 
673, 25710.7265258245 
674, 25721.3821134718 
675, 25749.0263079635 
676, 25768.3655385686 
677, 25768.8944337986 
678, 25775.5715507611 
679, 25777.0862395779 
680, 25769.4925225635 
681, 25752.4926993297 
682, 25726.5118382461 
683, 25658.4187259329 
684, 25435.9267075338 
685, 24845.7319469863 
686, 23809.0405843258 
687, 22418.5333183895 
688, 21011.997650408 
689, 20430.8846175154 
690, 20853.9384985609 
691, 21893.0454292524 
692, 22825.0094483162 
693, 23633.2328449252 
694, 24211.1746255677 
695, 24554.3967343205 
696, 24795.5569540973 
697, 25004.4622719824 
698, 25143.4566858529 
699, 25162.0454387828 
700, 25085.7225604454 
701, 25010.4791967984 
702, 25001.3894565113 
703, 25093.910768238 
704, 25292.0463906481 
705, 25524.2429653647 
706, 25720.8259252006 
707, 25830.2146498263 
708, 25918.5666017697 
709, 25995.9530612865 
710, 26060.302911728 
711, 26123.8990433988 
712, 26162.4160364544 
713, 26163.8593343757 
714, 26114.4430317771 
715, 25954.89862674 
716, 25574.7510745556 
717, 24925.4718725509 
718, 24045.5594135282 
719, 23315.1567520424 
720, 23042.6113219795 
721, 23343.1158437523 
722, 23978.1158838611 
723, 24413.527210329 
724, 24465.5805016182 
725, 24233.3106069407 
726, 24167.3627615472 
727, 24231.4472715939 
728, 24337.8884980954 
729, 24401.7212654702 
730, 24565.2287176005 
731, 24863.8087377397 
732, 25278.3775320119 
733, 25738.5949328841 
734, 26134.6852456095 
735, 26386.2421064937 
736, 26459.7701080002 
737, 26432.6191387707 
738, 26389.5336959146 
739, 26351.0593085032 
740, 26286.7535514478 
741, 26266.2328908932 
742, 26297.6228057188 
743, 26370.9326609455 
744, 26467.938699591 
745, 26529.4454746537 
746, 26548.296014604 
747, 26533.6973787032 
748, 26483.07793251 
749, 26381.4028042086 
750, 26248.7503439921 
751, 26128.428897337 
752, 26054.967187827 
753, 26021.2748411768 
754, 26001.8161848723 
755, 25954.4426234026 
756, 25805.6270503382 
757, 25244.0568685661 
758, 23769.807994929 
759, 20528.7184093182 
760, 15783.5416277833 
761, 11141.7894434246 
762, 8541.47545670528 
763, 8529.28617163344 
764, 9895.08044224386 
765, 12019.8245054774 
766, 14825.1842732091 
767, 17875.8837571445 
768, 20512.7136675506 
769, 22333.4927250735 
770, 23343.0047255885 
771, 23827.2762335322 
772, 23999.1395909724 
773, 24021.4247451559 
774, 23984.6435898346 
775, 23902.3283423639 
776, 23801.7464524285 
777, 23702.9847972569 
778, 23580.5988238808 
779, 23439.8625861951 
780, 23298.9747823506 
781, 23180.9069110039 
782, 23057.3881200012 
783, 22913.7802701509 
784, 22751.2358508455 
785, 22590.8273785106 
786, 22431.1716755651 
787, 22249.5041127502 
788, 22026.9349107024 
789, 21769.2909374484 
790, 21499.9827974292 
791, 21229.1068088178 
792, 20962.5620576139 
793, 20713.7187037733 
794, 20510.8833790141 
795, 20371.451133668 
796, 20295.6891696791 
797, 20236.2869512419 
798, 20147.9135251742 
799, 20006.0219705244 
800, 19813.3349544377 
801, 19600.4665396493 
802, 19403.0827159778 
803, 19237.9332619215 
804, 19080.5111741816 
805, 18944.312487706 
806, 18819.8760672406 
807, 18684.8515591232 
808, 18504.0017290517 
809, 18280.6484242907 
810, 18029.3646243419 
811, 17761.3954226649 
812, 17437.752957801 
813, 17010.6238844538 
814, 16475.4113838185 
815, 15877.7373103371 
816, 15326.200673858 
817, 14901.51997799 
818, 14651.4242338659 
819, 14584.6155893195 
820, 14581.2989311035 
821, 14545.4806851558 
822, 14436.2912390052 
823, 14306.1523140385 
824, 14222.4563450694 
825, 14244.7806545068 
826, 14358.4001469605 
827, 14338.7182537312 
828, 14185.0887305327 
829, 13972.9044993745 
830, 13807.4684281132 
831, 13704.0925366871 
832, 13632.9537667063 
833, 13577.5800654646 
834, 13537.5169578886 
835, 13521.320218255 
836, 13515.4863800771 
837, 13496.4094525785 
838, 13435.1138361121 
839, 13337.6372055223 
840, 13217.3156771504 
841, 13084.9524489302 
842, 12943.1357122512 
843, 12795.7572369986 
844, 12649.3539968691 
845, 12507.1414701188 
846, 12367.0003774379 
847, 12194.2617190363 
848, 11985.5895465733 
849, 11753.1652508434 
850, 11518.3866312938 
851, 11248.0569941093 
852, 10968.7944554077 
853, 10731.4663809859 
854, 10552.5867773546 
855, 10406.2049968261 
856, 10330.6065141851 
857, 10381.9814971443 
858, 10472.7697120716 
859, 10485.6420577839 
860, 10397.7839883293 
861, 10271.3201996079 
862, 10121.1981309 
863, 9933.80047455123 
864, 9710.9536059591 
865, 9477.50086683061 
866, 9258.37393837371 
867, 9072.03084838968 
868, 8944.47548380957 
869, 8910.78351644274 
870, 8917.66489137985 
871, 8895.27700113755 
872, 8809.6255751243 
873, 8694.19504699787 
874, 8568.96230725143 
875, 8444.05985137499 
876, 8322.36543414571 
877, 8199.94114101949 
878, 8084.26469271827 
879, 7970.4941807702 
880, 7853.54295801687 
881, 7738.58507344122 
882, 7623.12761898101 
883, 7512.96823594224 
884, 7412.05602173918 
885, 7310.04044607461 
886, 7203.24007307378 
887, 7092.95971306455 
888, 6982.56837607007 
889, 6873.03602934858 
890, 6766.3868784856 
891, 6649.31661807548 
892, 6504.67763151996 
893, 6332.87242508472 
894, 6133.22465184072 
895, 5911.92566641791 
896, 5679.93365396599 
897, 5447.82086856384 
898, 5228.07817736489 
899, 5045.96595590779 
900, 4925.89489668375 
901, 4854.25577871263 
902, 4822.99555495334 
903, 4813.3418106997 
904, 4801.1377522676 
905, 4773.50973961197 
906, 4720.06589831964 
907, 4631.41959283762 
908, 4505.90460958222 
909, 4372.32056108101 
910, 4259.10290976531 
911, 4177.6702162072 
912, 4122.69879432778 
913, 4077.22510662809 
914, 4031.73478773409 
915, 3985.39854324352 
916, 3944.50034293837 
917, 3918.22567722923 
918, 3899.98625828801 
919, 3883.68453881496 
920, 3865.23149798707 
921, 3843.76881201608 
922, 3812.16409384902 
923, 3762.53048987153 
924, 3688.67649332317 
925, 3592.77730356464 
926, 3475.3874933111 
927, 3333.69739291858 
928, 3163.42662081826 
929, 2964.13653273831 
930, 2740.09610751062 
931, 2503.26429678765 
932, 2271.79222126255 
933, 2066.29692482766 
934, 1905.52260705049 
935, 1797.91678737906 
936, 1742.30613383215 
937, 1731.51237756638 
938, 1746.09552390021 
939, 1769.61743061029 
940, 1790.89447363904 
941, 1808.5557643311 
942, 1814.8132592408 
943, 1799.12819105222 
944, 1757.82013671088 
945, 1709.00558818846 
946, 1669.84735295727 
947, 1645.97853787804 
948, 1635.21476834272 
949, 1631.90499462317 
950, 1627.4947747402 
951, 1621.27439896438 
952, 1614.86790696218 
953, 1607.74748965723 
954, 1596.58271663255 
955, 1586.34163951781 
956, 1580.65421320842 
957, 1575.84983923172 
958, 1572.14704621903 
959, 1569.64005722054 
960, 1568.56902279937 
961, 1569.28576052348 
962, 1572.20759957651 
963, 1576.38512990592 
964, 1581.05813119931 
965, 1585.81393348698 
966, 1587.75557732633 
967, 1586.6215026534 
968, 1581.9486472167 
969, 1572.92698335534 
970, 1559.93079048294 
971, 1543.49020821147 
972, 1521.96591001325 
973, 1493.14626018932 
974, 1458.32507358503 
975, 1424.08486949418 
976, 1392.0485543807 
977, 1362.04867968886 
978, 1338.04177881217 
979, 1318.25295949194 
980, 1299.58323103176 
981, 1280.53581663111 
982, 1264.38231148213 
983, 1247.52146470601 
984, 1228.19008593984 
985, 1206.58293150611 
986, 1184.82676084246 
987, 1160.18990685299 
988, 1135.25133245046 
989, 1110.25397217216 
990, 1082.82068210006 
991, 1058.41678429786 
992, 1033.52885561301 
993, 1007.49640875723 
994, 982.032079073778 
995, 956.055035216758 
996, 931.584177822477 
997, 906.745865514313 
998, 879.929518057195 
999, 855.752070873359 
1000, 833.257132354815 
1001, 5299.90993536876 
1002, 5270.3728383407 
1003, 5246.31384662756 
1004, 5220.97413041034 
1005, 5197.03675232765 
1006, 5185.23980170996 
1007, 5175.26782201485 
1008, 5172.6432320112 
1009, 5177.24688024221 
1010, 5190.548392982 
1011, 5202.62811018565 
1012, 5221.51645988772 
1013, 5242.03297179617 
1014, 5253.56773795574 
1015, 5265.96570757729 
1016, 5279.28195136693 
1017, 5294.75859793804 
1018, 5317.92344418406 
1019, 5338.18587440198 
1020, 5358.87081395292 
1021, 5380.93345429939 
1022, 5404.81427323914 
1023, 5427.64217318382 
1024, 5459.28697422614 
1025, 5494.94881071171 
1026, 5529.70839897801 
1027, 5562.16483353426 
1028, 5593.57020590424 
1029, 5622.17154645545 
1030, 5646.32648834196 
1031, 5671.82990118839 
1032, 5692.66022128635 
1033, 5705.47372523715 
1034, 5724.42562265827 
1035, 5746.81854558048 
1036, 5771.17148601719 
1037, 5796.51319986156 
1038, 5830.00935139454 
1039, 5859.30388343575 
1040, 5881.03964682809 
1041, 5903.11284818628 
1042, 5928.19844316792 
1043, 5951.45052771416 
1044, 5970.85690672142 
1045, 5993.38808703155 
1046, 6012.07974033914 
1047, 6031.78707079068 
1048, 6048.04389862332 
1049, 6071.14901558741 
1050, 6100.63072486975 
1051, 6132.46398312011 
1052, 6167.18794865083 
1053, 6205.64598696945 
1054, 6237.27620705591 
1055, 6269.69451074123 
1056, 6302.06223531296 
1057, 6330.8174813322 
1058, 6365.12194959262 
1059, 6405.2416486452 
1060, 6453.3046110095 
1061, 6513.31434465825 
1062, 6570.34958805141 
1063, 6632.18238767814 
1064, 6692.34028397067 
1065, 6756.9245234883 
1066, 6824.38937162244 
1067, 6899.14600924695 
1068, 6986.71802451319 
1069, 7076.23027922817 
1070, 7163.31359379254 
1071, 7265.47502363498 
1072, 7371.77202563293 
1073, 7474.21707115835 
1074, 7584.80706641861 
1075, 7684.71208301157 
1076, 7782.91942655334 
1077, 7866.77867151836 
1078, 7942.24420910199 
1079, 8014.66021744856 
1080, 8073.01685189369 
1081, 8128.56383844881 
1082, 8182.04187783046 
1083, 8229.05265010469 
1084, 8275.57871197419 
1085, 8317.17986051824 
1086, 8354.68998265427 
1087, 8392.17520472734 
1088, 8418.85987620279 
1089, 8440.42789899298 
1090, 8452.15519290856 
1091, 8457.54976388785 
1092, 8448.3975679472 
1093, 8429.694387504 
1094, 8407.48808263525 
1095, 8373.09268306949 
1096, 8339.14445948047 
1097, 8308.36255140887 
1098, 8272.98905629168 
1099, 8240.26032527764 
1100, 8210.38613749677 
1101, 8178.4998356156 
1102, 8153.11228556059 
1103, 8112.44200268783 
1104, 8071.18671099687 
1105, 8015.67228954522 
1106, 7949.3118415735 
1107, 7864.00454297865 
1108, 7751.21810418483 
1109, 7602.74309756482 
1110, 7403.17529735607 
1111, 7168.69800457536 
1112, 6894.30694394334 
1113, 6561.43674179341 
1114, 6235.35884214634 
1115, 5857.1665682974 
1116, 5517.23625221277 
1117, 5155.90558327051 
1118, 4847.3928191533 
1119, 4564.36674742679 
1120, 4301.36027689902 
1121, 4085.57253587962 
1122, 3916.77441200793 
1123, 3787.45996442237 
1124, 3697.01951619225 
1125, 3651.19458542906 
1126, 3662.2104572021 
1127, 3678.01790726141 
1128, 3737.76468605988 
1129, 3797.41671847034 
1130, 3881.44307172754 
1131, 3958.72270515903 
1132, 4040.41527244771 
1133, 4136.79062084789 
1134, 4235.27533489443 
1135, 4339.45328980633 
1136, 4494.13937704016 
1137, 4648.28479915349 
1138, 4795.80100703434 
1139, 4938.26289863944 
1140, 5028.80229862595 
1141, 5092.30466524511 
1142, 5115.26757028576 
1143, 5081.73642480205 
1144, 5058.44559019774 
1145, 4963.13240079162 
1146, 4946.0966110423 
1147, 4930.7844804207 
1148, 4973.4437072409 
1149, 5070.10712619056 
1150, 5197.33261592523 
1151, 5366.52897722069 
1152, 5559.91461425786 
1153, 5762.5067215051 
1154, 6003.09965442696 
1155, 6222.82022639473 
1156, 6455.80240539654 
1157, 6668.50468422085 
1158, 6879.91305868515 
1159, 7072.27089135149 
1160, 7255.73466587044 
1161, 7419.61599937162 
1162, 7572.08402010571 
1163, 7702.44991623734 
1164, 7815.57907589197 
1165, 7907.39951459156 
1166, 7974.86169258767 
1167, 8023.46260213406 
1168, 8058.96645831997 
1169, 8074.67418577363 
1170, 8077.13308468757 
1171, 8066.0929225628 
1172, 8039.95919898858 
1173, 7989.09518562781 
1174, 7940.37507394587 
1175, 7881.89756219385 
1176, 7817.20748864719 
1177, 7741.89033902734 
