Wavelength,0212202100125.asd
350, 2523.20081548318 
351, 2654.5144864585 
352, 2773.34836505583 
353, 2874.73955732097 
354, 2973.82435490418 
355, 3076.80462903001 
356, 3185.32936936928 
357, 3296.18229475689 
358, 3408.80109267449 
359, 3527.10576028467 
360, 3659.14056651018 
361, 3820.25892401304 
362, 4005.95806480087 
363, 4207.3710136463 
364, 4413.46756926939 
365, 4622.43149872635 
366, 4821.79261032791 
367, 4996.73950979068 
368, 5132.6440599351 
369, 5210.90149708818 
370, 5236.39477574021 
371, 5226.90626053996 
372, 5204.85081052796 
373, 5196.34633067611 
374, 5204.59407880988 
375, 5216.27342734805 
376, 5227.80782815144 
377, 5234.2205355759 
378, 5223.85990926396 
379, 5176.88840556154 
380, 5114.38458067926 
381, 5043.39811203238 
382, 4964.68681174703 
383, 4869.84881751446 
384, 4772.11622690613 
385, 4702.51223882013 
386, 4699.73364614795 
387, 4795.23066889783 
388, 4934.11302336236 
389, 5055.59916371527 
390, 5108.06758063961 
391, 5165.18170050119 
392, 5221.65113814421 
393, 5266.69816975792 
394, 5304.00451711036 
395, 5411.4324554713 
396, 5625.74030894202 
397, 5961.70014523842 
398, 6431.90788984261 
399, 6967.26952407269 
400, 7517.91761709021 
401, 8056.19894718784 
402, 8565.25079697766 
403, 8984.95312360363 
404, 9289.64984749705 
405, 9523.97342578095 
406, 9709.27714309116 
407, 9873.78237477934 
408, 10052.1362741424 
409, 10299.0170973254 
410, 10596.8075320058 
411, 10925.9503186643 
412, 11267.2324518678 
413, 11606.8940746664 
414, 11943.4515276579 
415, 12267.1304557356 
416, 12548.927464018 
417, 12816.4966451307 
418, 13092.7420603185 
419, 13382.9952413939 
420, 13629.7444073403 
421, 13881.8228393336 
422, 14159.2719464995 
423, 14453.7713264667 
424, 14727.3705985448 
425, 14943.5623199655 
426, 15070.8340938117 
427, 15081.1633038781 
428, 15021.9942619373 
429, 15029.5222304828 
430, 15214.6060204723 
431, 15484.6962867028 
432, 15839.5858240831 
433, 16362.2832551744 
434, 17160.7638259186 
435, 18010.4648108399 
436, 18661.3899862396 
437, 19061.4977551555 
438, 19484.1069448666 
439, 19917.6642084253 
440, 20325.3910352851 
441, 20693.3387209087 
442, 21173.2629073737 
443, 21678.5420071077 
444, 22141.1848573323 
445, 22519.0970356607 
446, 22823.9023930766 
447, 23096.4796450858 
448, 23383.6214360724 
449, 23741.7829683123 
450, 24046.4652946466 
451, 24211.4270051809 
452, 24202.7744282647 
453, 24138.0724099439 
454, 24000.9466478639 
455, 23828.6271276629 
456, 23706.9591764159 
457, 23676.1253617671 
458, 23680.9430133294 
459, 23663.4779165759 
460, 23601.2171020737 
461, 23507.793779729 
462, 23405.4635614082 
463, 23306.0739234172 
464, 23151.301074323 
465, 22910.7629443218 
466, 22613.555366456 
467, 22345.2368800803 
468, 22116.886037023 
469, 21944.8410855014 
470, 21837.9487833106 
471, 21798.5617352718 
472, 21771.6746112029 
473, 21762.9724731879 
474, 21794.5420148771 
475, 21786.4889180855 
476, 21761.4189771769 
477, 21745.147792904 
478, 21754.9209820816 
479, 21825.5925000109 
480, 21925.9966997702 
481, 21998.8933013273 
482, 21980.7073670221 
483, 21818.6481554627 
484, 21478.249775714 
485, 20966.6959300126 
486, 20464.9046224519 
487, 20107.0326574619 
488, 19999.9492002445 
489, 20231.9379468654 
490, 20603.0465044805 
491, 20910.6805340097 
492, 21023.1217578797 
493, 21062.810592009 
494, 21120.2273375775 
495, 21237.0919191519 
496, 21399.6834509974 
497, 21451.8779286179 
498, 21393.68296108 
499, 21259.3235554477 
500, 21078.9069716119 
501, 20941.0448142244 
502, 20884.2995897323 
503, 20926.6788308281 
504, 21118.3055598384 
505, 21387.020127979 
506, 21661.5508591081 
507, 21883.9013084221 
508, 22050.9430788939 
509, 22181.393648934 
510, 22305.1294805251 
511, 22470.7333189749 
512, 22588.0326947627 
513, 22612.5810606751 
514, 22530.6492352035 
515, 22345.7336685873 
516, 22096.7297182985 
517, 21852.0484085719 
518, 21707.4263457768 
519, 21890.104339848 
520, 22418.1261496661 
521, 23162.3292269991 
522, 23785.5891177503 
523, 24249.5114367928 
524, 24574.4495157063 
525, 24819.8143006011 
526, 24925.104942086 
527, 24965.9961726374 
528, 25095.2299347202 
529, 25597.2613758236 
530, 26252.2605555772 
531, 26806.0105203336 
532, 27050.2415609983 
533, 27131.7011321632 
534, 27254.1280618785 
535, 27526.2392027438 
536, 27937.9854068093 
537, 28236.7475978106 
538, 28377.9438150855 
539, 28399.2017943361 
540, 28389.7998160231 
541, 28411.858412352 
542, 28554.5715356331 
543, 28889.2247938427 
544, 29271.0278899569 
545, 29604.8982677367 
546, 29838.9992520374 
547, 29973.5106462951 
548, 30063.9671235529 
549, 30169.6688653696 
550, 30326.8330408091 
551, 30488.808258157 
552, 30613.7661488762 
553, 30705.5494678487 
554, 30803.0183546264 
555, 30877.2631277431 
556, 30850.8675159695 
557, 30681.7630580581 
558, 30402.0540218596 
559, 30160.666052484 
560, 30050.3737415008 
561, 30106.8893836412 
562, 30242.1185273987 
563, 30322.5104069897 
564, 30280.6551299673 
565, 30132.8725561113 
566, 29921.8182104399 
567, 29707.0951549761 
568, 29525.0300379722 
569, 29339.2100694309 
570, 29097.6533432318 
571, 28868.070130281 
572, 28782.0394859216 
573, 28807.0147194854 
574, 28799.7409716299 
575, 28668.5298381667 
576, 28425.2527446772 
577, 28203.0567014383 
578, 28087.5990828043 
579, 28124.112409114 
580, 28276.7660270286 
581, 28539.8765360415 
582, 28858.5298425382 
583, 29132.7225673985 
584, 29306.5543301171 
585, 29308.4175098989 
586, 29129.6334495057 
587, 28899.6988673179 
588, 28611.2572952575 
589, 28220.2657250194 
590, 27729.8979493752 
591, 27554.8333883145 
592, 27685.7507966793 
593, 27929.1577141011 
594, 27920.4326587071 
595, 27783.3866476317 
596, 27588.301953582 
597, 27383.6973565366 
598, 27162.0438342728 
599, 26889.0894804603 
600, 26588.0023137356 
601, 26322.1160341471 
602, 26116.9967859202 
603, 26007.3809752881 
604, 25991.9296996378 
605, 26018.0158838968 
606, 25962.0391559456 
607, 25817.8693849548 
608, 25632.4229771204 
609, 25450.3125886606 
610, 25276.92330572 
611, 25120.6589588182 
612, 24991.9853446449 
613, 24854.6211247476 
614, 24692.1509401963 
615, 24514.1650632742 
616, 24375.713454137 
617, 24290.4398300319 
618, 24291.611382652 
619, 24396.9228278803 
620, 24507.6695218976 
621, 24520.8501646903 
622, 24401.5246461949 
623, 24198.4669765537 
624, 23967.8429084636 
625, 23748.4340980106 
626, 23559.5818816222 
627, 23388.2953798059 
628, 23217.2152550534 
629, 23054.7337740995 
630, 22934.406623669 
631, 22947.8498954619 
632, 23036.1238841803 
633, 23143.774429102 
634, 23258.4835651537 
635, 23347.2738169611 
636, 23409.5255676587 
637, 23453.1283521666 
638, 23470.176211188 
639, 23438.4282141547 
640, 23339.3081561949 
641, 23167.6195040749 
642, 23033.4900349319 
643, 22953.8799207179 
644, 22903.2625399849 
645, 22811.500070078 
646, 22663.7910262805 
647, 22477.2151507128 
648, 22288.6176799053 
649, 22134.1961803205 
650, 22016.6850064899 
651, 21956.9269233099 
652, 21987.5038788603 
653, 21940.7648595953 
654, 21700.8285375662 
655, 21247.1992101526 
656, 20715.2295392839 
657, 20328.811440563 
658, 20331.2216736841 
659, 20849.6315725779 
660, 21383.8589820388 
661, 21692.0514805063 
662, 21755.3929127587 
663, 21787.8781240732 
664, 21769.549475819 
665, 21735.0300007395 
666, 21716.7451097406 
667, 21724.7868841049 
668, 21719.1507979202 
669, 21697.532932864 
670, 21675.9380964452 
671, 21631.6288746727 
672, 21581.0686873306 
673, 21548.3562735062 
674, 21561.5803133777 
675, 21588.2112369192 
676, 21608.9013239028 
677, 21615.6973150418 
678, 21624.9938631179 
679, 21629.7009643962 
680, 21627.1498697667 
681, 21616.8907634107 
682, 21601.7708932885 
683, 21551.4419690096 
684, 21370.1610589212 
685, 20879.942083901 
686, 20009.4687225046 
687, 18835.8277228944 
688, 17644.6485599565 
689, 17146.4912789937 
690, 17504.6224890552 
691, 18392.9541751013 
692, 19194.9376666072 
693, 19894.1032211722 
694, 20399.3368870399 
695, 20705.0806648465 
696, 20920.0726260655 
697, 21108.3251225521 
698, 21238.4904035299 
699, 21267.3229478199 
700, 21217.1761053912 
701, 21167.2236781776 
702, 21172.4167440704 
703, 21263.7214010059 
704, 21442.5268405703 
705, 21652.554027487 
706, 21835.3995046188 
707, 21941.7320073917 
708, 22030.3174199687 
709, 22110.2724104442 
710, 22179.3949185867 
711, 22245.7594401572 
712, 22292.1445591629 
713, 22308.4170218902 
714, 22280.9456912109 
715, 22159.37622023 
716, 21848.7013312142 
717, 21308.224713062 
718, 20573.333941033 
719, 19959.2371468248 
720, 19732.9066871363 
721, 19997.6911199943 
722, 20548.2662262215 
723, 20932.6613163387 
724, 20990.8799014242 
725, 20802.0449496136 
726, 20755.8163603484 
727, 20817.299683793 
728, 20912.5318612973 
729, 20975.464312382 
730, 21124.1886116519 
731, 21389.1548485706 
732, 21754.2209301568 
733, 22157.4591852646 
734, 22509.2196849174 
735, 22738.6085808461 
736, 22813.3953353738 
737, 22802.692484652 
738, 22777.6691257316 
739, 22755.7927219887 
740, 22712.1162599749 
741, 22706.4874070851 
742, 22746.6530168897 
743, 22824.4359806029 
744, 22923.9383622037 
745, 22991.8018315541 
746, 23023.3461751267 
747, 23028.5289826255 
748, 23004.8704988585 
749, 22934.8866061413 
750, 22835.7239460445 
751, 22747.7383226252 
752, 22704.8968416418 
753, 22695.1409027248 
754, 22694.7466659939 
755, 22672.1218584896 
756, 22565.2591552706 
757, 22099.0344298075 
758, 20831.1688572397 
759, 18008.9989727356 
760, 13852.6770720636 
761, 9770.89093944142 
762, 7469.69588332001 
763, 7444.86475978543 
764, 8641.86992245083 
765, 10522.2886364043 
766, 13019.5030456942 
767, 15750.1093670812 
768, 18128.2973616152 
769, 19789.8577798698 
770, 20723.857153046 
771, 21189.8677377018 
772, 21376.8768044381 
773, 21428.7227251358 
774, 21426.2194610399 
775, 21379.3241445092 
776, 21314.5158278723 
777, 21252.8971219335 
778, 21168.8658196161 
779, 21069.0199276182 
780, 20968.7883603001 
781, 20885.672216062 
782, 20796.1371866035 
783, 20688.0207150876 
784, 20562.985566937 
785, 20440.214595934 
786, 20315.0771698784 
787, 20168.5781356834 
788, 19985.2496028029 
789, 19768.0648998088 
790, 19539.7069269331 
791, 19308.7930193018 
792, 19079.6825525498 
793, 18865.6341960091 
794, 18692.1665165597 
795, 18575.2596473194 
796, 18515.6924336668 
797, 18471.464708794 
798, 18398.6046627452 
799, 18274.5341710864 
800, 18105.2166225211 
801, 17917.6680706549 
802, 17742.6153236514 
803, 17594.6662599881 
804, 17453.789572002 
805, 17332.1038866719 
806, 17220.0838098321 
807, 17096.6169912157 
808, 16930.3382299584 
809, 16726.9924501334 
810, 16498.7237119122 
811, 16252.9228839284 
812, 15955.3905351149 
813, 15565.0434917876 
814, 15077.0799488595 
815, 14529.8077787024 
816, 14024.0571165542 
817, 13632.2252640954 
818, 13398.4305918668 
819, 13334.2232671093 
820, 13327.7500549266 
821, 13290.9386947249 
822, 13187.0347527961 
823, 13065.7958740947 
824, 12985.8068397353 
825, 13000.9745796126 
826, 13099.3170547916 
827, 13080.7592310211 
828, 12940.0583416214 
829, 12745.2397215003 
830, 12593.5838429971 
831, 12498.6423123649 
832, 12429.8305982548 
833, 12375.0924540262 
834, 12340.7434384364 
835, 12327.2904796346 
836, 12323.807377834 
837, 12308.5259668671 
838, 12252.2636666321 
839, 12168.4651773063 
840, 12065.0301071326 
841, 11948.8455262241 
842, 11825.4360467918 
843, 11695.82535713 
844, 11567.6800175532 
845, 11445.4001814139 
846, 11325.3065560987 
847, 11176.7119017332 
848, 10995.4484777472 
849, 10791.6243413797 
850, 10586.5116946259 
851, 10349.1516599774 
852, 10103.4569611947 
853, 9895.78988405127 
854, 9741.73963051382 
855, 9618.84987050681 
856, 9561.65644883696 
857, 9620.36179451166 
858, 9717.31225981909 
859, 9742.42300577917 
860, 9673.93440479676 
861, 9569.98055842343 
862, 9446.79491605401 
863, 9286.25546973068 
864, 9089.17663507747 
865, 8883.76628695094 
866, 8693.41014613286 
867, 8533.07054755109 
868, 8426.26276069529 
869, 8407.76588763199 
870, 8428.5547803368 
871, 8420.54785035383 
872, 8350.86820764369 
873, 8254.05791342793 
874, 8149.27866498846 
875, 8044.53056771533 
876, 7941.66843823664 
877, 7839.10094570981 
878, 7739.64394298646 
879, 7642.24691596013 
880, 7544.622471937 
881, 7444.52416760899 
882, 7344.76696637401 
883, 7250.00167545019 
884, 7162.22174478759 
885, 7074.19688323088 
886, 6979.53159354851 
887, 6879.97669758674 
888, 6780.53347994865 
889, 6682.9550526751 
890, 6586.3796617514 
891, 6478.83229005785 
892, 6345.51747136799 
893, 6183.93878390817 
894, 5995.04055001963 
895, 5784.54513626944 
896, 5562.11551818983 
897, 5339.10935142143 
898, 5129.39984126136 
899, 4955.23110152627 
900, 4837.40985709945 
901, 4769.68027084889 
902, 4742.14384963854 
903, 4734.76343567691 
904, 4723.3845772673 
905, 4697.5021598319 
906, 4647.51175852385 
907, 4562.91581889327 
908, 4440.1206862472 
909, 4308.66146469928 
910, 4199.22757906512 
911, 4120.90318783421 
912, 4064.38436462396 
913, 4019.61873618956 
914, 3976.5903149633 
915, 3932.2758838062 
916, 3891.01249935416 
917, 3866.45514066258 
918, 3849.58319602495 
919, 3832.96460072972 
920, 3813.17734404986 
921, 3793.8903667693 
922, 3764.91081966234 
923, 3716.56721392541 
924, 3642.76586308383 
925, 3547.45201129945 
926, 3432.95431627546 
927, 3295.62917249595 
928, 3129.1866290793 
929, 2935.32059660759 
930, 2715.11425848274 
931, 2480.72494802614 
932, 2252.8692131273 
933, 2054.22593729621 
934, 1896.82439955483 
935, 1789.04045524705 
936, 1733.45124735306 
937, 1722.99071701984 
938, 1737.93237079842 
939, 1761.99495863134 
940, 1784.15255540801 
941, 1802.22234576221 
942, 1808.46572755465 
943, 1793.82046615866 
944, 1755.3000422542 
945, 1706.97203070643 
946, 1667.65875600044 
947, 1643.87260554579 
948, 1634.01145793233 
949, 1633.11830215027 
950, 1631.6037586564 
951, 1628.18741654662 
952, 1623.29611534342 
953, 1613.11556056922 
954, 1604.58949470002 
955, 1598.0052142802 
956, 1592.43868779512 
957, 1588.58039906768 
958, 1587.36537439283 
959, 1588.07176103953 
960, 1589.96838933562 
961, 1592.9675450027 
962, 1595.13669876434 
963, 1601.3804132686 
964, 1611.3927067542 
965, 1617.96826177686 
966, 1622.9732882354 
967, 1624.57261167893 
968, 1621.86345970521 
969, 1615.31739570025 
970, 1605.80819808412 
971, 1592.20605834291 
972, 1572.67470782627 
973, 1546.13196668982 
974, 1515.63662291383 
975, 1483.00521211695 
976, 1451.49528312042 
977, 1424.19699219043 
978, 1401.53765113422 
979, 1383.96155671136 
980, 1368.92257157633 
981, 1353.68459694504 
982, 1337.88903314974 
983, 1322.4613593841 
984, 1305.16391015254 
985, 1285.30579189493 
986, 1265.55924522344 
987, 1241.32845030055 
988, 1217.40064920724 
989, 1194.58581908711 
990, 1168.50050087224 
991, 1143.05157516379 
992, 1118.77224371311 
993, 1094.43033643104 
994, 1068.51829760998 
995, 1042.8825918599 
996, 1017.92720126013 
997, 992.428483302526 
998, 965.887698063518 
999, 942.194305074636 
1000, 916.42401461731 
1001, 5827.08316695107 
1002, 5808.26054644111 
1003, 5786.41885467116 
1004, 5768.26937575029 
1005, 5761.0135922223 
1006, 5758.96966090311 
1007, 5761.76660164484 
1008, 5780.81306501224 
1009, 5796.94297779723 
1010, 5815.17598562282 
1011, 5833.7962768049 
1012, 5855.93768303121 
1013, 5875.57801425472 
1014, 5897.00537170486 
1015, 5918.59719794385 
1016, 5945.23416416782 
1017, 5977.17141639409 
1018, 6008.65706023334 
1019, 6041.83780231991 
1020, 6072.37120831118 
1021, 6098.22324298293 
1022, 6127.55959633983 
1023, 6156.40019755994 
1024, 6188.85566216973 
1025, 6221.7102418355 
1026, 6258.94222438097 
1027, 6295.709082455 
1028, 6329.1370994326 
1029, 6363.46403462193 
1030, 6390.78598373354 
1031, 6414.53715825206 
1032, 6445.52549090665 
1033, 6475.36887773259 
1034, 6504.00335052897 
1035, 6532.09487515671 
1036, 6563.00820607901 
1037, 6583.09113357555 
1038, 6600.14411581599 
1039, 6616.42611167126 
1040, 6631.23562632574 
1041, 6654.92167772488 
1042, 6679.39464248214 
1043, 6701.37615484333 
1044, 6725.83111519339 
1045, 6746.08150739912 
1046, 6760.36433494029 
1047, 6777.7310223655 
1048, 6797.5811197463 
1049, 6817.6814698356 
1050, 6835.63784248581 
1051, 6859.82727913336 
1052, 6888.85406478845 
1053, 6914.54107064974 
1054, 6938.57470689216 
1055, 6965.69263024046 
1056, 6989.10612186398 
1057, 7017.83432715416 
1058, 7057.0120440064 
1059, 7099.12907397699 
1060, 7143.06048964584 
1061, 7190.93327397952 
1062, 7243.41904394628 
1063, 7298.43859587583 
1064, 7355.92216302483 
1065, 7420.8572603277 
1066, 7491.11819924192 
1067, 7560.81463276992 
1068, 7639.84385167622 
1069, 7728.92892477686 
1070, 7823.2833365444 
1071, 7928.60824785655 
1072, 8035.76009005702 
1073, 8139.78359261692 
1074, 8251.18645954081 
1075, 8348.31740887077 
1076, 8440.69637207907 
1077, 8524.53671952985 
1078, 8597.3979371958 
1079, 8663.12969447799 
1080, 8728.00282732825 
1081, 8793.28733281083 
1082, 8849.1771117572 
1083, 8900.93014752606 
1084, 8950.13421886065 
1085, 8994.11092972359 
1086, 9035.85088576139 
1087, 9081.04222943691 
1088, 9112.18108986416 
1089, 9142.0278613294 
1090, 9152.35062060207 
1091, 9145.09448366657 
1092, 9135.75465346514 
1093, 9116.79688514724 
1094, 9085.30364033511 
1095, 9058.68401268368 
1096, 9032.57634840775 
1097, 8994.60902164415 
1098, 8961.98072964076 
1099, 8931.11546702218 
1100, 8899.81821853131 
1101, 8865.6920241702 
1102, 8838.25827468316 
1103, 8799.7601223553 
1104, 8759.56496320522 
1105, 8710.63190610618 
1106, 8650.09899048975 
1107, 8564.97912566025 
1108, 8441.05682927979 
1109, 8287.55380462045 
1110, 8082.06936589349 
1111, 7835.26140595151 
1112, 7546.86905326409 
1113, 7197.73685143426 
1114, 6846.45578127737 
1115, 6435.24974506908 
1116, 6066.96500137197 
1117, 5669.98048494175 
1118, 5334.217331755 
1119, 5027.14235216437 
1120, 4743.13436175903 
1121, 4512.09900397575 
1122, 4324.10397933531 
1123, 4190.97260471866 
1124, 4102.95138749128 
1125, 4060.04245476938 
1126, 4085.14083392732 
1127, 4106.93503513378 
1128, 4170.96265571138 
1129, 4233.76315581541 
1130, 4315.88401152713 
1131, 4400.26991582562 
1132, 4486.89126527256 
1133, 4593.8587954069 
1134, 4713.25076349473 
1135, 4836.48513134072 
1136, 5007.91529188745 
1137, 5189.39757322955 
1138, 5357.21281367319 
1139, 5515.25625552528 
1140, 5617.46735954115 
1141, 5685.55670646139 
1142, 5715.65132277342 
1143, 5687.95257737853 
1144, 5668.59635976199 
1145, 5572.0588521625 
1146, 5561.19095259617 
1147, 5545.39155849009 
1148, 5602.30530254305 
1149, 5723.04687179635 
1150, 5880.00241000381 
1151, 6091.54025176569 
1152, 6331.08470458599 
1153, 6570.91551453834 
1154, 6846.74903746429 
1155, 7106.45499683408 
1156, 7373.89795915912 
1157, 7629.15713559611 
1158, 7895.17053218304 
1159, 8134.23741650331 
1160, 8364.74315748393 
1161, 8571.389496657 
1162, 8764.99496634625 
1163, 8932.01446799295 
1164, 9074.32500958387 
1165, 9198.36050330118 
1166, 9298.21822594541 
1167, 9379.09279266941 
1168, 9442.92264818229 
1169, 9488.49768545824 
1170, 9514.64529146181 
1171, 9518.11838583615 
1172, 9512.51261113328 
1173, 9486.7940781583 
1174, 9454.86859231532 
1175, 9408.92340332038 
1176, 9358.63501229372 
1177, 9294.0511767613 
