Wavelength,0212202100016.asd
350, 4017.04220304686 
351, 4220.87468370102 
352, 4409.62304462687 
353, 4573.05411831351 
354, 4739.96823358365 
355, 4915.0047299666 
356, 5094.69548998655 
357, 5272.46320420505 
358, 5460.07464686759 
359, 5664.04645385065 
360, 5891.27215479771 
361, 6166.16984496888 
362, 6474.27736170381 
363, 6801.44804459237 
364, 7137.28413423661 
365, 7477.7582267258 
366, 7800.78599250599 
367, 8080.30304161507 
368, 8289.99455779308 
369, 8412.10949894347 
370, 8458.82125249307 
371, 8458.00802303386 
372, 8439.04749952676 
373, 8439.53521049679 
374, 8463.52194341184 
375, 8491.55613874698 
376, 8525.2196576776 
377, 8543.0909633153 
378, 8522.17203687137 
379, 8441.78389147335 
380, 8345.33892206529 
381, 8237.54729153951 
382, 8113.965459051 
383, 7970.74231797514 
384, 7829.44492097569 
385, 7743.12302168322 
386, 7773.40758873504 
387, 7945.60274923579 
388, 8163.98805526942 
389, 8346.34417717449 
390, 8444.7488538144 
391, 8556.6509312891 
392, 8655.58094149943 
393, 8725.67675095154 
394, 8816.28215079111 
395, 9037.16647246112 
396, 9437.95481788425 
397, 10032.997914497 
398, 10830.1871844528 
399, 11732.3090454481 
400, 12659.4603342232 
401, 13554.9343545932 
402, 14390.8759450115 
403, 15081.1867441927 
404, 15593.4578453979 
405, 16001.7938023489 
406, 16327.69014341 
407, 16625.7135003712 
408, 16961.1433641963 
409, 17400.5716681188 
410, 17918.8928802716 
411, 18488.2871303718 
412, 19080.7307378567 
413, 19670.973523752 
414, 20251.1332613094 
415, 20805.0583522134 
416, 21294.1750067691 
417, 21771.6762867007 
418, 22261.2926518487 
419, 22760.0300117839 
420, 23199.1932697242 
421, 23650.4680063318 
422, 24140.4552165591 
423, 24651.8638743814 
424, 25124.8205105725 
425, 25498.5661969796 
426, 25715.1441518146 
427, 25711.3881393604 
428, 25636.6364972758 
429, 25706.4775416914 
430, 26070.6686596857 
431, 26556.7756379724 
432, 27220.0241810201 
433, 28191.1082869382 
434, 29593.1343834473 
435, 31006.712136576 
436, 32087.8568336709 
437, 32794.121029331 
438, 33547.6034137382 
439, 34310.1164411822 
440, 35035.1994672236 
441, 35714.411889697 
442, 36565.9227796453 
443, 37439.3662345356 
444, 38233.8725291428 
445, 38902.6336120009 
446, 39440.9804950813 
447, 39936.7401776901 
448, 40472.9089441803 
449, 41111.8676492529 
450, 41623.6959741905 
451, 41885.7240103032 
452, 41872.3806452316 
453, 41770.5950863189 
454, 41551.3850525939 
455, 41280.0254879691 
456, 41105.2492569576 
457, 41071.8972883915 
458, 41091.3504804309 
459, 41072.7344883316 
460, 40978.7802701613 
461, 40831.0801815605 
462, 40665.3740107244 
463, 40499.1763703579 
464, 40228.0438528636 
465, 39816.1211248096 
466, 39318.2455158519 
467, 38873.0684922853 
468, 38494.0419723188 
469, 38217.4958173933 
470, 38062.3643482849 
471, 38017.1290616902 
472, 37993.4964882065 
473, 37999.7958315804 
474, 38069.7386364815 
475, 38064.9597608781 
476, 38039.3684782841 
477, 38038.3264551026 
478, 38073.7147700563 
479, 38216.1084222715 
480, 38398.0240984833 
481, 38511.2193963198 
482, 38469.1244481617 
483, 38155.231444103 
484, 37519.3917172603 
485, 36607.3840726507 
486, 35769.5313159954 
487, 35207.7346069711 
488, 35082.4502684856 
489, 35548.1628051418 
490, 36204.8084964859 
491, 36721.6837865274 
492, 36909.7991835218 
493, 36987.0297210479 
494, 37111.1185716531 
495, 37340.8841494038 
496, 37629.3388640265 
497, 37710.5995535294 
498, 37598.2801720626 
499, 37360.538758984 
500, 37042.5501184754 
501, 36823.5089125704 
502, 36760.5380503075 
503, 36866.348649851 
504, 37251.7272244259 
505, 37752.8160109621 
506, 38234.8223609533 
507, 38619.7770054114 
508, 38912.0317451581 
509, 39145.031126229 
510, 39368.6725579118 
511, 39668.1181399836 
512, 39865.6262282297 
513, 39892.5724078114 
514, 39745.3380846581 
515, 39398.4223353262 
516, 38942.3015071502 
517, 38518.8117694758 
518, 38308.5331501491 
519, 38704.1767811525 
520, 39705.0770540054 
521, 41050.0217720392 
522, 42133.1852111245 
523, 42938.4609400258 
524, 43509.0903498501 
525, 43922.9254531465 
526, 44086.6887688371 
527, 44161.089112059 
528, 44431.0842973999 
529, 45393.6958444054 
530, 46590.2380812227 
531, 47548.7221156458 
532, 47917.1007136362 
533, 48044.517107581 
534, 48286.4402644512 
535, 48810.9634345082 
536, 49563.4045595006 
537, 50079.8477047121 
538, 50301.1081504173 
539, 50319.5509013712 
540, 50305.5140806636 
541, 50366.7859115883 
542, 50657.8824615086 
543, 51296.3394969675 
544, 51989.1509502668 
545, 52576.8278393755 
546, 52979.76393393 
547, 53205.5978223477 
548, 53359.9748347135 
549, 53553.0564045477 
550, 53847.0435495345 
551, 54136.0602005437 
552, 54354.4731745577 
553, 54516.8238129508 
554, 54697.2067452503 
555, 54836.4509229625 
556, 54782.2770193847 
557, 54457.370564669 
558, 53941.7854152095 
559, 53521.9627385155 
560, 53361.1772010262 
561, 53506.1727784039 
562, 53776.9938489781 
563, 53921.0260478948 
564, 53828.4004348013 
565, 53565.6081978898 
566, 53193.6500428811 
567, 52831.6245858003 
568, 52547.787706811 
569, 52234.5200899929 
570, 51807.2212486105 
571, 51407.2032837933 
572, 51293.8688037771 
573, 51395.6618665029 
574, 51406.5912372057 
575, 51147.5317974765 
576, 50687.988149889 
577, 50293.3676908908 
578, 50099.8230992722 
579, 50162.9064348511 
580, 50440.9176954695 
581, 50924.2231454018 
582, 51501.3376132655 
583, 51970.3963607114 
584, 52254.7589674361 
585, 52225.2666351944 
586, 51876.3989530375 
587, 51490.235690669 
588, 51016.5659022227 
589, 50341.853249467 
590, 49462.8997211744 
591, 49289.2557202693 
592, 49631.3994022494 
593, 50054.9178419865 
594, 49967.1382731507 
595, 49676.193998098 
596, 49307.8795728345 
597, 48922.026055164 
598, 48484.1788803131 
599, 47950.1254169714 
600, 47376.3631557946 
601, 46886.5086556651 
602, 46503.0951518888 
603, 46314.8015501876 
604, 46320.1598236158 
605, 46369.0887041954 
606, 46244.9071062849 
607, 45964.019005125 
608, 45636.1490687609 
609, 45308.9017684759 
610, 44997.2900236374 
611, 44721.9604933123 
612, 44504.7011145497 
613, 44257.4966608584 
614, 43958.762122283 
615, 43636.5287553785 
616, 43392.481911366 
617, 43235.8439307651 
618, 43251.1888789048 
619, 43495.7390742201 
620, 43693.1075922167 
621, 43695.6910024977 
622, 43465.4873213083 
623, 43083.1849146549 
624, 42668.777329765 
625, 42286.3052427599 
626, 41965.3708387579 
627, 41707.2680086356 
628, 41422.9377484897 
629, 41133.9837551983 
630, 40942.8478864634 
631, 40971.10765124 
632, 41120.0956293608 
633, 41300.1903599721 
634, 41493.5034704873 
635, 41632.0851911381 
636, 41721.5568535197 
637, 41785.8446507626 
638, 41813.1023486762 
639, 41741.7974596963 
640, 41535.8768330284 
641, 41201.5460834463 
642, 40965.2770596586 
643, 40843.5660980951 
644, 40770.4277363007 
645, 40600.8963537616 
646, 40347.2782640281 
647, 40043.1635952602 
648, 39740.1867884851 
649, 39483.2762198261 
650, 39266.8385727357 
651, 39147.3121811317 
652, 39226.8976693101 
653, 39130.1526730924 
654, 38668.60722351 
655, 37820.4448819572 
656, 36766.1133968583 
657, 36050.3342421216 
658, 36153.9182605585 
659, 37253.5834537034 
660, 38144.5182010014 
661, 38599.7016438724 
662, 38691.6283367435 
663, 38732.9300644849 
664, 38678.1353033088 
665, 38611.8539287113 
666, 38601.181839216 
667, 38605.1970287407 
668, 38586.3767962461 
669, 38551.3035080597 
670, 38522.8896539302 
671, 38432.5493864145 
672, 38330.0368323609 
673, 38274.0954081035 
674, 38316.9784081563 
675, 38365.3531626445 
676, 38396.131961174 
677, 38411.939834302 
678, 38431.7336997261 
679, 38439.1638265488 
680, 38431.0530870506 
681, 38411.6064128752 
682, 38388.187724848 
683, 38301.2995289109 
684, 37981.3977816306 
685, 37123.6571572063 
686, 35575.7466722683 
687, 33430.6635634104 
688, 31235.3931805149 
689, 30607.4770526529 
690, 31441.9096195945 
691, 33061.7775094433 
692, 34481.9459902062 
693, 35719.1361103283 
694, 36603.4596143287 
695, 37116.8568302942 
696, 37457.5100181398 
697, 37739.7278163993 
698, 37913.8289098884 
699, 37917.5495994255 
700, 37831.4179589803 
701, 37746.499210276 
702, 37744.4560924294 
703, 37888.5751868813 
704, 38192.9522824906 
705, 38537.674324649 
706, 38815.4440847497 
707, 38963.3487517163 
708, 39087.1930639091 
709, 39200.6446767763 
710, 39298.4141326305 
711, 39404.635159634 
712, 39472.8782268017 
713, 39492.4800074065 
714, 39461.2397205726 
715, 39304.9913477863 
716, 38862.4325194718 
717, 38057.7206605818 
718, 36938.1375781471 
719, 36018.1721743033 
720, 35725.0034307578 
721, 36212.7752984284 
722, 37123.2247987864 
723, 37692.4758044194 
724, 37733.2193876271 
725, 37473.1576044731 
726, 37468.1157923466 
727, 37594.0434668912 
728, 37718.8244598249 
729, 37783.835232141 
730, 38012.0911391033 
731, 38434.0909582392 
732, 38997.8715395913 
733, 39589.101686212 
734, 40082.3916033634 
735, 40375.5766115379 
736, 40428.5049251199 
737, 40376.4723071338 
738, 40299.5089587781 
739, 40213.4147388035 
740, 40089.4377378966 
741, 40042.7468560892 
742, 40086.2131642219 
743, 40202.7763365439 
744, 40363.0489780091 
745, 40459.1811836199 
746, 40491.5030564089 
747, 40486.5677643039 
748, 40423.1873067419 
749, 40278.3145531123 
750, 40086.6455084334 
751, 39920.9648446735 
752, 39839.7495892603 
753, 39818.4468998386 
754, 39811.7829772765 
755, 39761.0726717219 
756, 39565.3126253778 
757, 38741.0389444396 
758, 36473.7195792139 
759, 31295.9935866276 
760, 23827.3286452376 
761, 16782.7785903154 
762, 13254.7036087122 
763, 13599.8568337144 
764, 15877.3738730202 
765, 19204.3259103187 
766, 23612.8270023141 
767, 28283.6934228445 
768, 32228.2924485165 
769, 34884.4895835465 
770, 36322.5557958437 
771, 37002.3265727263 
772, 37246.1147739631 
773, 37287.3536447893 
774, 37245.4632733949 
775, 37139.9581916413 
776, 37009.5526719374 
777, 36881.7586790774 
778, 36713.6587071847 
779, 36519.4587527292 
780, 36328.519667453 
781, 36172.6433296011 
782, 36004.2439661281 
783, 35803.601421697 
784, 35575.6515977424 
785, 35354.5241246706 
786, 35142.9830426633 
787, 34899.3033862039 
788, 34589.8916869063 
789, 34235.5603627403 
790, 33855.5849158015 
791, 33457.3403946942 
792, 33048.0894837246 
793, 32652.8143765613 
794, 32336.0472449095 
795, 32134.0738520163 
796, 32044.2823390056 
797, 31977.8258059816 
798, 31846.5111680269 
799, 31615.595670614 
800, 31318.7746526442 
801, 31000.4033077627 
802, 30705.4699408959 
803, 30450.0932382316 
804, 30192.0023788296 
805, 29964.0424161689 
806, 29753.1302693191 
807, 29525.2212915295 
808, 29235.0105863333 
809, 28895.7852820886 
810, 28531.4483344083 
811, 28156.7153243733 
812, 27712.2045657107 
813, 27124.7599668902 
814, 26383.6806626053 
815, 25550.0990795543 
816, 24767.8267830245 
817, 24142.2387942459 
818, 23741.4621000907 
819, 23590.7270827823 
820, 23519.4644726262 
821, 23413.3427242404 
822, 23228.9692474566 
823, 23028.6994043538 
824, 22904.044549547 
825, 22916.3059587273 
826, 23028.2501591782 
827, 22947.0355036455 
828, 22692.4270765815 
829, 22367.2297298807 
830, 22103.0781807033 
831, 21914.334959859 
832, 21764.1239473586 
833, 21635.8239716439 
834, 21534.8286426184 
835, 21472.4676295635 
836, 21430.1109669429 
837, 21370.6915579452 
838, 21245.8727245366 
839, 21075.430248439 
840, 20875.916308997 
841, 20659.602257834 
842, 20430.3925697213 
843, 20196.0381370742 
844, 19965.2801945803 
845, 19741.5587983343 
846, 19521.8514556921 
847, 19250.3303800222 
848, 18926.375771596 
849, 18571.4402683206 
850, 18206.8662486505 
851, 17785.4351408184 
852, 17356.7526964586 
853, 17004.3173740136 
854, 16732.8358242747 
855, 16515.9788597422 
856, 16417.7368736627 
857, 16520.1322155885 
858, 16670.7576826921 
859, 16692.9462135362 
860, 16558.3916076914 
861, 16368.8195493057 
862, 16141.8673549905 
863, 15852.5120523015 
864, 15507.450475759 
865, 15155.7755905671 
866, 14821.8547750982 
867, 14539.9706468666 
868, 14356.6675363513 
869, 14327.6941221599 
870, 14353.1869591321 
871, 14326.5578768694 
872, 14199.4361543582 
873, 14024.3357145897 
874, 13838.762787894 
875, 13654.372225587 
876, 13472.2910503472 
877, 13291.5720687558 
878, 13117.746526451 
879, 12947.6909565949 
880, 12775.858632297 
881, 12597.2931420296 
882, 12424.161783784 
883, 12262.0228697741 
884, 12110.0987709291 
885, 11958.6906340779 
886, 11795.5894483014 
887, 11623.5479876633 
888, 11452.2012276126 
889, 11288.6590279027 
890, 11127.5311067563 
891, 10950.3246557244 
892, 10736.3725343455 
893, 10483.4870140257 
894, 10192.9457045824 
895, 9872.02850212264 
896, 9533.29073900114 
897, 9192.17434641421 
898, 8869.95857534658 
899, 8598.10257725341 
900, 8405.5761854083 
901, 8287.09197719483 
902, 8222.25180989168 
903, 8186.33238980013 
904, 8153.49509973561 
905, 8103.52809358046 
906, 8017.43224816829 
907, 7878.08463238543 
908, 7682.15143244002 
909, 7481.13667810056 
910, 7310.024885513 
911, 7182.42550949673 
912, 7091.69499020846 
913, 7016.75962982369 
914, 6941.82212815045 
915, 6863.82571546431 
916, 6790.70410197029 
917, 6735.51638600584 
918, 6687.86230956251 
919, 6641.50638046528 
920, 6594.66741063736 
921, 6543.90130300382 
922, 6480.12213381464 
923, 6391.63153297737 
924, 6268.70541588453 
925, 6118.37469428867 
926, 5939.29592212833 
927, 5724.92037312163 
928, 5466.8223428733 
929, 5162.35877637168 
930, 4821.59620835052 
931, 4462.09383046072 
932, 4108.417171139 
933, 3792.75186486867 
934, 3541.62380145366 
935, 3369.73886000887 
936, 3277.84612789507 
937, 3249.27924387179 
938, 3262.07519963768 
939, 3292.71265959898 
940, 3321.15339947824 
941, 3340.3510146534 
942, 3341.21041652794 
943, 3309.86967431398 
944, 3241.28797457747 
945, 3159.7247449834 
946, 3092.2123631735 
947, 3049.3693769252 
948, 3028.68322003584 
949, 3017.44594244919 
950, 3005.72755316584 
951, 2991.78800803177 
952, 2975.80490020462 
953, 2953.5779375076 
954, 2933.75130215179 
955, 2915.34604835889 
956, 2897.61145071063 
957, 2885.54044634413 
958, 2873.44635115704 
959, 2864.37177879874 
960, 2859.63133849928 
961, 2855.07530044015 
962, 2851.86666983951 
963, 2851.77183798397 
964, 2853.77245564018 
965, 2853.40920611432 
966, 2846.33159344474 
967, 2835.27678083114 
968, 2819.97796890698 
969, 2797.48065367869 
970, 2772.85541458985 
971, 2741.70086230882 
972, 2701.85165220034 
973, 2653.99474097435 
974, 2600.01681873568 
975, 2545.51211278329 
976, 2491.63980559776 
977, 2439.45818856483 
978, 2398.39078148805 
979, 2362.32807857188 
980, 2329.99265317596 
981, 2300.47028013544 
982, 2269.86899151857 
983, 2237.00089073999 
984, 2201.74813007758 
985, 2164.86812390349 
986, 2127.44587454473 
987, 2085.40816304347 
988, 2042.23593900322 
989, 1999.50869211952 
990, 1955.70709320022 
991, 1914.7604413374 
992, 1870.96193434474 
993, 1825.62865124681 
994, 1784.2097177738 
995, 1743.65977352841 
996, 1700.6857715228 
997, 1656.09245666233 
998, 1612.37671134968 
999, 1570.48735879777 
1000, 1529.30262244434 
1001, 9545.88516112451 
1002, 9514.89317394439 
1003, 9481.88747380799 
1004, 9451.99006938861 
1005, 9436.56301842275 
1006, 9435.48656668322 
1007, 9446.63184383285 
1008, 9471.6927569399 
1009, 9497.37463535184 
1010, 9533.71330588468 
1011, 9567.21989739955 
1012, 9602.47120263472 
1013, 9637.00592799677 
1014, 9676.40254036908 
1015, 9720.35586886624 
1016, 9763.3118458981 
1017, 9805.66612781897 
1018, 9855.04709763633 
1019, 9901.90816142472 
1020, 9945.19380841056 
1021, 9997.34612372914 
1022, 10052.4081594425 
1023, 10109.9378069501 
1024, 10164.8184085133 
1025, 10229.6377595774 
1026, 10293.5720973062 
1027, 10346.3880514655 
1028, 10404.7303924914 
1029, 10461.507377668 
1030, 10511.9403090567 
1031, 10560.219819047 
1032, 10602.8074099014 
1033, 10644.206843495 
1034, 10685.4763253469 
1035, 10726.9562442207 
1036, 10770.9867357834 
1037, 10814.7767302605 
1038, 10853.1553741875 
1039, 10882.7410439033 
1040, 10909.1268336979 
1041, 10932.1706340366 
1042, 10953.0489954085 
1043, 10985.4624190611 
1044, 11016.629676299 
1045, 11050.2073945742 
1046, 11087.7797045151 
1047, 11117.8714267133 
1048, 11140.3434326066 
1049, 11170.2301130902 
1050, 11202.8907414892 
1051, 11236.1105001035 
1052, 11280.7869027438 
1053, 11328.6046444356 
1054, 11372.4055807808 
1055, 11413.2865834439 
1056, 11459.250268087 
1057, 11505.6485746093 
1058, 11554.6972811993 
1059, 11617.1758457399 
1060, 11689.0934910431 
1061, 11769.7081064507 
1062, 11858.1596571629 
1063, 11960.4356483941 
1064, 12060.7963068188 
1065, 12164.0602966636 
1066, 12276.5428187392 
1067, 12398.2401645828 
1068, 12534.4998887696 
1069, 12681.0635556147 
1070, 12830.8352742202 
1071, 12992.8589704305 
1072, 13158.6359908582 
1073, 13321.2611245484 
1074, 13495.3217976368 
1075, 13653.8163241888 
1076, 13806.0261940818 
1077, 13950.8576571123 
1078, 14085.8172982041 
1079, 14210.5757052706 
1080, 14320.0249038045 
1081, 14419.5304106451 
1082, 14507.8105362294 
1083, 14589.0146609147 
1084, 14668.1398381341 
1085, 14740.1941219094 
1086, 14808.9303528102 
1087, 14877.949567271 
1088, 14933.35675031 
1089, 14990.8028730271 
1090, 15023.9587210724 
1091, 15041.2066609633 
1092, 15042.687034454 
1093, 15029.8032563981 
1094, 15000.1218242213 
1095, 14968.2741013167 
1096, 14939.1101306302 
1097, 14906.8418038998 
1098, 14873.9201386636 
1099, 14845.6327327181 
1100, 14823.8341650729 
1101, 14792.0803224839 
1102, 14766.2764074639 
1103, 14722.8859405579 
1104, 14677.9091440081 
1105, 14610.893377839 
1106, 14522.5520942608 
1107, 14404.1776138897 
1108, 14233.8035869763 
1109, 14012.0901189112 
1110, 13711.6657825772 
1111, 13345.8089883206 
1112, 12912.0075903919 
1113, 12375.3982681197 
1114, 11847.6845972506 
1115, 11230.8389322186 
1116, 10679.2865273129 
1117, 10090.3622567753 
1118, 9586.05300440543 
1119, 9119.55579237108 
1120, 8695.4949260327 
1121, 8342.1249970543 
1122, 8061.11621387578 
1123, 7864.71965402004 
1124, 7736.61567369869 
1125, 7677.76976314203 
1126, 7722.60372864012 
1127, 7765.29688991842 
1128, 7873.83421172236 
1129, 7978.5070860103 
1130, 8120.66670356604 
1131, 8253.00870948648 
1132, 8377.99634136371 
1133, 8541.23365340361 
1134, 8713.6879905234 
1135, 8900.99803262088 
1136, 9184.48746711407 
1137, 9475.92013733804 
1138, 9754.85557405728 
1139, 10019.4699272607 
1140, 10192.5351314935 
1141, 10311.0702805738 
1142, 10364.5961261351 
1143, 10320.0153105117 
1144, 10297.7090090457 
1145, 10151.0142401291 
1146, 10145.6760152847 
1147, 10152.8575853546 
1148, 10254.1116559988 
1149, 10451.2431800667 
1150, 10695.515674855 
1151, 11014.4438055088 
1152, 11372.6448470176 
1153, 11737.0264314578 
1154, 12160.4588553447 
1155, 12550.9050304274 
1156, 12954.1270607617 
1157, 13331.973511417 
1158, 13711.9764172016 
1159, 14063.7772239384 
1160, 14404.7020593554 
1161, 14710.1587287954 
1162, 15002.1925026837 
1163, 15252.2427530884 
1164, 15463.6621080021 
1165, 15648.4303417221 
1166, 15798.3995215376 
1167, 15918.0972394318 
1168, 16015.1654721951 
1169, 16084.334690896 
1170, 16127.9284068635 
1171, 16144.9328754545 
1172, 16140.0278857214 
1173, 16103.5766791106 
1174, 16054.9512698811 
1175, 15975.2062547883 
1176, 15898.0960698929 
1177, 15802.9761210604 
