Wavelength,0212202100047.asd
350, 2365.79430755481 
351, 2486.30150555535 
352, 2597.60572771899 
353, 2688.70220155964 
354, 2780.10609099822 
355, 2877.29684270234 
356, 2979.61045105947 
357, 3081.68126098414 
358, 3186.23825276144 
359, 3297.22815261007 
360, 3421.07634020258 
361, 3572.70652158314 
362, 3745.56833338811 
363, 3931.51261569154 
364, 4122.81128196373 
365, 4316.69140211766 
366, 4501.17557704907 
367, 4661.96653014702 
368, 4784.34800310292 
369, 4853.4158242972 
370, 4876.80038898627 
371, 4871.71481226775 
372, 4850.17868140676 
373, 4840.92883381174 
374, 4848.36652186696 
375, 4859.12323317587 
376, 4868.21963880253 
377, 4872.78696643805 
378, 4862.24572845538 
379, 4815.86846164077 
380, 4755.8836318835 
381, 4689.02678926469 
382, 4615.27114730927 
383, 4524.94968757073 
384, 4434.97319776895 
385, 4374.24056809817 
386, 4375.83075772135 
387, 4463.96685137743 
388, 4589.51341148727 
389, 4698.91717024125 
390, 4747.37739076795 
391, 4803.53512172287 
392, 4856.34580890731 
393, 4894.18557345061 
394, 4932.01731532461 
395, 5034.64934619877 
396, 5236.97890700491 
397, 5554.57586849178 
398, 5991.49393564834 
399, 6488.02984371593 
400, 6998.14556081348 
401, 7492.88548251652 
402, 7963.00148132831 
403, 8350.19960733524 
404, 8629.36891028874 
405, 8845.73782112527 
406, 9017.46991929269 
407, 9171.11385328632 
408, 9339.13868391981 
409, 9570.28782243677 
410, 9846.52725333471 
411, 10150.7115033638 
412, 10467.6628712354 
413, 10781.4822376867 
414, 11090.3478846245 
415, 11387.3091664866 
416, 11651.4069488062 
417, 11900.8112419898 
418, 12155.1697196722 
419, 12420.7991157054 
420, 12649.3278255611 
421, 12882.1847116238 
422, 13138.268524795 
423, 13412.5869396916 
424, 13663.2971630258 
425, 13860.3251910271 
426, 13975.3636697129 
427, 13975.6827040405 
428, 13919.6055778062 
429, 13930.8875245697 
430, 14105.0370329364 
431, 14352.2624296462 
432, 14685.0900108734 
433, 15177.6713148824 
434, 15916.3380026896 
435, 16693.0875454063 
436, 17285.6500787943 
437, 17652.0171853723 
438, 18044.1135224716 
439, 18442.2956173148 
440, 18817.4494289045 
441, 19161.8393369478 
442, 19602.2524932842 
443, 20064.5454090768 
444, 20488.5268782146 
445, 20834.7816281672 
446, 21111.9906013511 
447, 21360.9598778925 
448, 21626.0930837728 
449, 21956.2454402501 
450, 22231.0718995164 
451, 22374.3903899589 
452, 22360.7910720873 
453, 22299.5199982437 
454, 22169.8804125813 
455, 22006.8159077156 
456, 21895.1656053565 
457, 21865.1671188357 
458, 21867.7547658412 
459, 21850.4656336128 
460, 21787.9504103633 
461, 21698.8108555125 
462, 21603.2173520401 
463, 21509.232050902 
464, 21360.9675856863 
465, 21136.2464313529 
466, 20861.9771922823 
467, 20611.0771433492 
468, 20398.6296742297 
469, 20239.4978140058 
470, 20140.8596041973 
471, 20104.8373918821 
472, 20078.5786115876 
473, 20068.2880505217 
474, 20096.0288064107 
475, 20083.1261767532 
476, 20057.3952099205 
477, 20044.0391396978 
478, 20052.297210339 
479, 20116.0959913836 
480, 20206.5646977803 
481, 20270.9366988086 
482, 20252.5732444969 
483, 20097.0786884 
484, 19775.2338464331 
485, 19301.0204106572 
486, 18841.7523058724 
487, 18518.0625541293 
488, 18426.002953605 
489, 18646.6847294227 
490, 18986.8374450594 
491, 19262.790963682 
492, 19359.8633290628 
493, 19394.3214133648 
494, 19448.241963965 
495, 19557.4111022917 
496, 19705.7625312691 
497, 19749.1356096691 
498, 19690.3641545903 
499, 19563.2861770654 
500, 19395.5434889071 
501, 19269.7137262566 
502, 19221.0029404448 
503, 19264.8261216781 
504, 19445.3845435005 
505, 19695.6928270744 
506, 19948.0176172506 
507, 20145.485127917 
508, 20295.8896162771 
509, 20414.7346948648 
510, 20526.2195853081 
511, 20676.1660201114 
512, 20778.447872785 
513, 20794.374859005 
514, 20715.6175561275 
515, 20540.3640590093 
516, 20309.0143716963 
517, 20086.4392541133 
518, 19957.3469341963 
519, 20131.1729886905 
520, 20622.2204176039 
521, 21308.451888848 
522, 21874.8925072851 
523, 22297.9594661926 
524, 22595.9826131339 
525, 22814.394088912 
526, 22906.0389343322 
527, 22942.4436286035 
528, 23064.0733456266 
529, 23531.5792500647 
530, 24136.4006215928 
531, 24640.6860926628 
532, 24852.9793783166 
533, 24922.1746842125 
534, 25034.8953183238 
535, 25288.4802831298 
536, 25670.0645085878 
537, 25940.0132847269 
538, 26063.0016717928 
539, 26079.9150750073 
540, 26071.1810903134 
541, 26094.899733211 
542, 26230.6339983295 
543, 26539.8246828695 
544, 26889.3757409371 
545, 27193.0659941674 
546, 27404.6581638662 
547, 27525.7368268211 
548, 27606.7150612595 
549, 27702.3556007038 
550, 27845.9642349757 
551, 27992.7356385107 
552, 28105.8712911129 
553, 28189.0004615674 
554, 28276.6594560704 
555, 28343.709085513 
556, 28317.2847204803 
557, 28158.0430411384 
558, 27897.7308638973 
559, 27677.9202963874 
560, 27580.9575993392 
561, 27634.4606520271 
562, 27762.3216559075 
563, 27835.1062029641 
564, 27791.2920379788 
565, 27655.5091995676 
566, 27460.4465439998 
567, 27262.4235796775 
568, 27096.8136821446 
569, 26928.139540395 
570, 26703.8847636398 
571, 26489.3382587124 
572, 26412.5236114803 
573, 26438.1289242398 
574, 26429.6566754218 
575, 26302.8290658722 
576, 26076.4603128511 
577, 25871.1685333899 
578, 25764.6421449851 
579, 25797.8243114786 
580, 25938.9978436341 
581, 26183.9286011877 
582, 26479.6063598719 
583, 26728.8458740729 
584, 26885.7405221324 
585, 26883.0142447566 
586, 26713.5980887385 
587, 26506.2482698526 
588, 26251.4715532605 
589, 25904.1450166365 
590, 25463.3081859844 
591, 25321.7175907072 
592, 25455.049674288 
593, 25677.3840147403 
594, 25658.4029463676 
595, 25523.5987480238 
596, 25337.6775442172 
597, 25142.2061712794 
598, 24929.1440750126 
599, 24669.473972052 
600, 24386.261011519 
601, 24138.4877732168 
602, 23945.8200158322 
603, 23843.3515942467 
604, 23830.5215407093 
605, 23853.6102775195 
606, 23797.3751893822 
607, 23660.1182597157 
608, 23489.4489111978 
609, 23322.6824210542 
610, 23162.3038671999 
611, 23016.3766114038 
612, 22897.3206412598 
613, 22769.7393253608 
614, 22618.4856969855 
615, 22453.3270251246 
616, 22327.8742483345 
617, 22248.2554587762 
618, 22247.9968145602 
619, 22348.5963195351 
620, 22448.5823509983 
621, 22456.4907202611 
622, 22342.6960086147 
623, 22152.0178205733 
624, 21938.6099196368 
625, 21736.8505133831 
626, 21563.3055290946 
627, 21409.0962792333 
628, 21252.0062975514 
629, 21101.1754351437 
630, 20992.9723674841 
631, 21005.9855485961 
632, 21085.2539559359 
633, 21181.7334291329 
634, 21289.6285691746 
635, 21371.1353203858 
636, 21426.1318646267 
637, 21464.6048521053 
638, 21480.4493209163 
639, 21448.6816945052 
640, 21353.5955869844 
641, 21196.3177875317 
642, 21073.5266498026 
643, 21002.9274645287 
644, 20961.0462982326 
645, 20876.0449205093 
646, 20744.5438540814 
647, 20580.9648694832 
648, 20414.0838421867 
649, 20278.4108152449 
650, 20172.1679555107 
651, 20114.6256916507 
652, 20140.4725790685 
653, 20094.675594661 
654, 19871.356934603 
655, 19450.8911544565 
656, 18951.1828164163 
657, 18594.6613732784 
658, 18608.4209824879 
659, 19101.5289577748 
660, 19580.9880079831 
661, 19848.2735570497 
662, 19900.4187881445 
663, 19930.5120243745 
664, 19909.0758663993 
665, 19875.0847487557 
666, 19863.7432546625 
667, 19870.8287881027 
668, 19862.9318976968 
669, 19843.0213088463 
670, 19829.8816043028 
671, 19790.2994813464 
672, 19741.6978164134 
673, 19710.9568937608 
674, 19729.6124268862 
675, 19757.6979720789 
676, 19777.4417507031 
677, 19784.6820280984 
678, 19798.7554485577 
679, 19805.36096266 
680, 19803.3349126866 
681, 19798.3701240537 
682, 19788.2237063168 
683, 19745.5604018876 
684, 19582.5516024233 
685, 19134.3656709102 
686, 18335.6893282524 
687, 17253.0794571924 
688, 16153.4365905099 
689, 15729.5854639474 
690, 16088.9275438257 
691, 16921.6052789056 
692, 17673.4787724925 
693, 18335.6767990253 
694, 18818.6429970054 
695, 19112.0479402714 
696, 19314.225935045 
697, 19482.3749069122 
698, 19596.0206775198 
699, 19624.6761962793 
700, 19591.7248306924 
701, 19557.942997039 
702, 19570.7094388072 
703, 19661.4131658438 
704, 19831.5003782575 
705, 20028.5418807543 
706, 20199.3579956085 
707, 20300.9578737214 
708, 20386.3137007129 
709, 20464.4896981016 
710, 20534.5100203944 
711, 20604.7918079454 
712, 20657.0472095132 
713, 20682.450477676 
714, 20671.6053841343 
715, 20585.1661962538 
716, 20338.208781688 
717, 19892.2054678531 
718, 19274.9301889318 
719, 18762.289526691 
720, 18585.3211393623 
721, 18833.0106224409 
722, 19329.1946068728 
723, 19671.7928263353 
724, 19729.0251615862 
725, 19582.635692085 
726, 19564.1479848696 
727, 19634.202393992 
728, 19724.6562104352 
729, 19780.7120631681 
730, 19916.2927866104 
731, 20157.9089535698 
732, 20487.0352417528 
733, 20841.2045476279 
734, 21147.5195879517 
735, 21344.5952559574 
736, 21404.3767472141 
737, 21393.7990509118 
738, 21370.0211426601 
739, 21346.7969596812 
740, 21304.5391506239 
741, 21297.6912293759 
742, 21333.4164390464 
743, 21404.5816637353 
744, 21497.4578816524 
745, 21562.7312986535 
746, 21594.6672128877 
747, 21600.5415203819 
748, 21575.6692635016 
749, 21509.5982868255 
750, 21418.4643256265 
751, 21336.8062262849 
752, 21298.5649568713 
753, 21290.7734804393 
754, 21291.3489741856 
755, 21273.2309915256 
756, 21170.929006201 
757, 20727.7417165961 
758, 19527.5491646372 
759, 16849.1313438998 
760, 12923.5407607398 
761, 9103.02304288669 
762, 7002.19343334318 
763, 7020.27111411546 
764, 8159.67310540455 
765, 9927.36065087801 
766, 12283.5248047625 
767, 14844.2177336271 
768, 17060.4066160321 
769, 18598.2809972363 
770, 19460.5357901204 
771, 19887.4423651593 
772, 20055.4565150803 
773, 20099.0706137104 
774, 20093.9030336754 
775, 20051.4146249697 
776, 19993.0112284482 
777, 19933.8254610363 
778, 19853.1811385653 
779, 19757.4591539621 
780, 19661.8797819574 
781, 19583.7546986148 
782, 19496.6713864055 
783, 19393.69361578 
784, 19277.8894596198 
785, 19162.2737604286 
786, 19047.7429702245 
787, 18915.0766047834 
788, 18747.9192766606 
789, 18551.3933071662 
790, 18342.0859984778 
791, 18126.6508735899 
792, 17909.5945092874 
793, 17703.699762449 
794, 17540.1661856882 
795, 17433.6140310513 
796, 17378.8963318763 
797, 17341.0253201573 
798, 17274.5514649919 
799, 17156.7357150658 
800, 16996.3778733604 
801, 16820.333851523 
802, 16657.6657588741 
803, 16520.3977278709 
804, 16384.5515641705 
805, 16267.9691572545 
806, 16161.2858951633 
807, 16043.1141902183 
808, 15887.1075427303 
809, 15699.5862411194 
810, 15492.6520976143 
811, 15273.9126969108 
812, 15013.1030099363 
813, 14669.119162247 
814, 14237.5556193366 
815, 13755.961872552 
816, 13306.1445439727 
817, 12951.4137130671 
818, 12731.3990818922 
819, 12657.2174348444 
820, 12634.8274414067 
821, 12590.28000376 
822, 12492.7517010149 
823, 12384.4859355129 
824, 12311.3839718792 
825, 12319.2892128217 
826, 12397.6232426975 
827, 12368.8556300538 
828, 12235.5285625647 
829, 12056.6327120075 
830, 11913.1929517655 
831, 11818.488324105 
832, 11746.7759198519 
833, 11687.1466081275 
834, 11644.2296566682 
835, 11622.9573373812 
836, 11610.9614705953 
837, 11588.4140488648 
838, 11532.0952556047 
839, 11448.9391117916 
840, 11346.6662085939 
841, 11233.3268300297 
842, 11115.7766354697 
843, 10992.7887686129 
844, 10871.2328980862 
845, 10755.2902589615 
846, 10641.3615262454 
847, 10499.0878222599 
848, 10326.7878017728 
849, 10135.5855012905 
850, 9940.14606347032 
851, 9717.02923403496 
852, 9487.88032257967 
853, 9293.10206706675 
854, 9149.36091960338 
855, 9032.72253565329 
856, 8978.26806741971 
857, 9037.27067502731 
858, 9126.3932522835 
859, 9145.95811735794 
860, 9078.81920278504 
861, 8980.70261685272 
862, 8862.40348935755 
863, 8709.50867604831 
864, 8524.64552650554 
865, 8333.8224914087 
866, 8152.4018711217 
867, 7999.84886167346 
868, 7900.8542086132 
869, 7883.76433328848 
870, 7903.35117186604 
871, 7894.75739911207 
872, 7827.16917827167 
873, 7735.20932378312 
874, 7636.64102777462 
875, 7537.50647738022 
876, 7439.27324045755 
877, 7343.69492186849 
878, 7249.54680838573 
879, 7156.789384211 
880, 7064.74085619641 
881, 6969.78945119319 
882, 6876.94861858878 
883, 6788.5080918282 
884, 6704.39953325923 
885, 6621.66796847002 
886, 6532.86652186226 
887, 6439.60086558414 
888, 6346.95863765528 
889, 6256.33519106117 
890, 6167.24335145299 
891, 6067.9471094428 
892, 5944.70613720154 
893, 5799.53166689677 
894, 5631.24718203635 
895, 5443.91308153669 
896, 5245.68367858028 
897, 5045.68914920771 
898, 4857.08513505325 
899, 4699.69237724233 
900, 4591.60425415427 
901, 4527.46641824925 
902, 4498.4925492627 
903, 4486.2719486058 
904, 4469.30612733323 
905, 4443.35144882132 
906, 4397.15531499175 
907, 4319.19774590751 
908, 4205.90325013457 
909, 4088.65011902606 
910, 3989.28734577555 
911, 3916.84354730741 
912, 3867.48491554651 
913, 3825.12957006456 
914, 3781.81753372781 
915, 3737.89014214163 
916, 3699.90638355765 
917, 3674.9336454053 
918, 3654.0488405846 
919, 3633.06688294166 
920, 3612.21237790899 
921, 3589.53367786088 
922, 3559.33639964249 
923, 3513.05085417283 
924, 3443.46436820311 
925, 3359.24047789821 
926, 3257.74501660257 
927, 3133.793469103 
928, 2982.78033401924 
929, 2808.51719390745 
930, 2611.64887461547 
931, 2401.82034596162 
932, 2196.02424949527 
933, 2013.35499635713 
934, 1869.86395438781 
935, 1772.54678889602 
936, 1720.22865074517 
937, 1707.17193977026 
938, 1718.34382133289 
939, 1737.8935948379 
940, 1754.06843150223 
941, 1769.71631615987 
942, 1773.04839095303 
943, 1756.8336918455 
944, 1720.75172074224 
945, 1674.40608737865 
946, 1638.12418946376 
947, 1616.84443038417 
948, 1606.70544699769 
949, 1601.64894028271 
950, 1598.42943210526 
951, 1594.16887353094 
952, 1587.19009515621 
953, 1577.46080750939 
954, 1566.44556347598 
955, 1557.28727958039 
956, 1551.35973971535 
957, 1545.95899306454 
958, 1542.16422347565 
959, 1540.23045090675 
960, 1539.97426527525 
961, 1540.81775901627 
962, 1542.00373397666 
963, 1544.29876797587 
964, 1547.37822289374 
965, 1549.58504466831 
966, 1553.25990887563 
967, 1552.06720815131 
968, 1544.59156308421 
969, 1534.889000409 
970, 1524.22260114139 
971, 1510.74735280238 
972, 1491.05510656911 
973, 1463.24661439379 
974, 1435.06500183353 
975, 1404.26074451916 
976, 1373.00362300579 
977, 1345.57916830893 
978, 1325.02857256262 
979, 1307.43836669123 
980, 1290.6821361374 
981, 1274.37683326942 
982, 1260.40636472889 
983, 1244.11692723001 
984, 1225.78887973052 
985, 1205.97155765349 
986, 1183.65592620909 
987, 1162.65289464681 
988, 1141.81515926132 
989, 1118.97664561987 
990, 1092.83680006611 
991, 1067.76504020425 
992, 1043.74033814921 
993, 1020.25849792254 
994, 996.752787692882 
995, 972.294158239252 
996, 949.148678223276 
997, 925.505182605041 
998, 899.624881869838 
999, 875.780549905765 
1000, 852.856990868676 
1001, 5364.17132199289 
1002, 5338.86413859963 
1003, 5316.9814644952 
1004, 5301.44198469727 
1005, 5288.58881288047 
1006, 5283.0351274851 
1007, 5292.47524401383 
1008, 5304.50567048303 
1009, 5314.64666191963 
1010, 5325.75424145534 
1011, 5340.62930524234 
1012, 5355.66150021947 
1013, 5374.88165720727 
1014, 5399.2933477129 
1015, 5421.61223475705 
1016, 5444.69852545803 
1017, 5466.48425358762 
1018, 5485.59762805917 
1019, 5511.59111698159 
1020, 5544.70686335686 
1021, 5574.77650576149 
1022, 5607.25059037678 
1023, 5643.07359348446 
1024, 5679.15677214562 
1025, 5712.16690683402 
1026, 5748.2271524786 
1027, 5781.93118874844 
1028, 5814.3685597169 
1029, 5841.48257704322 
1030, 5863.65001512213 
1031, 5890.35571339351 
1032, 5912.67954240835 
1033, 5934.04657331988 
1034, 5962.51016527333 
1035, 5988.06486342718 
1036, 6010.64282610812 
1037, 6034.11448715635 
1038, 6066.01890151604 
1039, 6090.91827989882 
1040, 6108.49792245169 
1041, 6128.8928668071 
1042, 6145.52541262845 
1043, 6157.42116456324 
1044, 6172.02327307346 
1045, 6186.93817012559 
1046, 6196.29033307822 
1047, 6210.77577286395 
1048, 6225.88571955061 
1049, 6249.43072914375 
1050, 6274.58365807467 
1051, 6302.45466457875 
1052, 6327.71061746003 
1053, 6349.87228387686 
1054, 6371.26817258244 
1055, 6390.45234599408 
1056, 6413.59722525255 
1057, 6439.54201973699 
1058, 6473.46070917062 
1059, 6513.96161437272 
1060, 6555.57817803563 
1061, 6604.17548659794 
1062, 6654.09978789407 
1063, 6703.75304177213 
1064, 6757.26154110694 
1065, 6819.9893506209 
1066, 6885.25219934544 
1067, 6958.17397937499 
1068, 7035.57885667786 
1069, 7122.08278309124 
1070, 7215.28729312823 
1071, 7305.48441981313 
1072, 7399.64508937034 
1073, 7494.18734704335 
1074, 7587.48974311424 
1075, 7678.28350203926 
1076, 7772.69449670665 
1077, 7867.03544324278 
1078, 7941.04757156825 
1079, 8013.7097941772 
1080, 8077.41018673202 
1081, 8125.67327116973 
1082, 8178.0141045016 
1083, 8228.37374101164 
1084, 8271.48283775909 
1085, 8313.66622429363 
1086, 8354.35990658738 
1087, 8395.84684864955 
1088, 8425.84876280487 
1089, 8455.36566802833 
1090, 8472.16658626854 
1091, 8477.21603614709 
1092, 8473.49861392881 
1093, 8464.66326808387 
1094, 8449.04912075785 
1095, 8426.77232105842 
1096, 8402.37603617681 
1097, 8378.18680045155 
1098, 8354.17762310934 
1099, 8331.30011832726 
1100, 8312.36857068002 
1101, 8286.77205582641 
1102, 8261.51108709698 
1103, 8229.73417356896 
1104, 8197.92276185975 
1105, 8154.12781202009 
1106, 8105.87107593766 
1107, 8035.32644230048 
1108, 7933.73173855681 
1109, 7803.51772033734 
1110, 7618.78841592416 
1111, 7396.82672489422 
1112, 7140.1250885644 
1113, 6828.64182205921 
1114, 6514.93361137805 
1115, 6147.68869557945 
1116, 5822.08951378322 
1117, 5470.76936632767 
1118, 5172.43497586227 
1119, 4901.88386567692 
1120, 4656.01520505369 
1121, 4446.9857218983 
1122, 4276.59631391283 
1123, 4156.36109158303 
1124, 4074.73061040767 
1125, 4035.7183009537 
1126, 4056.97848491134 
1127, 4077.98806839051 
1128, 4138.37399844018 
1129, 4199.32632778407 
1130, 4282.74830378316 
1131, 4361.92514411255 
1132, 4445.20461428701 
1133, 4541.52571334914 
1134, 4638.05071316936 
1135, 4744.45829076944 
1136, 4902.62770781174 
1137, 5066.53460142936 
1138, 5229.27286034391 
1139, 5380.52530827486 
1140, 5478.09861005975 
1141, 5542.36850981805 
1142, 5572.18549203545 
1143, 5547.63271887991 
1144, 5532.26961201801 
1145, 5448.29775070814 
1146, 5438.91427986466 
1147, 5423.00977806765 
1148, 5473.61827841932 
1149, 5582.17287093817 
1150, 5721.11204335395 
1151, 5908.48165338647 
1152, 6117.95723655429 
1153, 6331.65034036748 
1154, 6578.68808117448 
1155, 6807.25537026058 
1156, 7046.48600266686 
1157, 7268.29928450706 
1158, 7487.6357612013 
1159, 7694.23638238432 
1160, 7898.87823310816 
1161, 8077.57358743227 
1162, 8247.84235475871 
1163, 8391.91507460637 
1164, 8509.67740976502 
1165, 8609.11251083586 
1166, 8697.32153890106 
1167, 8768.5860994121 
1168, 8821.83749726723 
1169, 8861.52360416739 
1170, 8880.62755552197 
1171, 8874.28608254125 
1172, 8863.2539165521 
1173, 8833.37766151246 
1174, 8801.39333934654 
1175, 8763.21510501457 
1176, 8714.02722321408 
