Wavelength,0212202100150.asd
350, 2136.14438704706 
351, 2246.12937862241 
352, 2347.09849166189 
353, 2432.37205764913 
354, 2516.20941481536 
355, 2604.14777865074 
356, 2696.60763682244 
357, 2786.47564738511 
358, 2881.91523542341 
359, 2984.29557352032 
360, 3094.84659977776 
361, 3233.42108963961 
362, 3391.12534604433 
363, 3560.0804544839 
364, 3735.49053853432 
365, 3910.45185232317 
366, 4076.91030577151 
367, 4224.29511074638 
368, 4338.49570153244 
369, 4403.95949289116 
370, 4426.0192312442 
371, 4420.03626941578 
372, 4400.60205657116 
373, 4391.84826674396 
374, 4397.92379205712 
375, 4408.22320260198 
376, 4418.29999660061 
377, 4424.33657255176 
378, 4415.44827400641 
379, 4371.75689230617 
380, 4319.54759341951 
381, 4261.17583252559 
382, 4193.39324639368 
383, 4113.38652357591 
384, 4031.05862579001 
385, 3973.01473552089 
386, 3972.4644072564 
387, 4052.63859953015 
388, 4169.17301694141 
389, 4272.07565340434 
390, 4317.77870965551 
391, 4365.15183861378 
392, 4411.87198950079 
393, 4450.45247693023 
394, 4481.79890514812 
395, 4573.20978365594 
396, 4755.12470142624 
397, 5039.21489024798 
398, 5438.67006962597 
399, 5891.53352143039 
400, 6354.96644307712 
401, 6807.68297233789 
402, 7236.12394898947 
403, 7589.74329513985 
404, 7846.80334687713 
405, 8044.7508083394 
406, 8199.7690397024 
407, 8338.48200833513 
408, 8492.25189854133 
409, 8699.40286286498 
410, 8950.35265432615 
411, 9228.91114755134 
412, 9515.5022362821 
413, 9802.17777022768 
414, 10086.3222764065 
415, 10359.0555480226 
416, 10597.7130802625 
417, 10826.4894021988 
418, 11059.7590713259 
419, 11299.1682795245 
420, 11509.0356821052 
421, 11721.8870427346 
422, 11954.5349322435 
423, 12205.5237721005 
424, 12435.859338782 
425, 12616.6185756711 
426, 12722.646164784 
427, 12728.7606306656 
428, 12679.3378566049 
429, 12688.1511740083 
430, 12845.8378145567 
431, 13071.741865259 
432, 13371.058058505 
433, 13814.53919605 
434, 14490.0861312264 
435, 15203.6312028885 
436, 15749.0319519797 
437, 16085.3104960698 
438, 16440.4492959601 
439, 16804.2099674237 
440, 17147.2555076101 
441, 17458.8215217851 
442, 17862.0249468785 
443, 18285.461344472 
444, 18674.2100356095 
445, 18994.8244637896 
446, 19248.7883946136 
447, 19477.5252219676 
448, 19723.3849298383 
449, 20025.1366218853 
450, 20277.4538232012 
451, 20411.9251915397 
452, 20404.6892095914 
453, 20352.4487052516 
454, 20236.8623463892 
455, 20089.4454244075 
456, 19986.6406534812 
457, 19960.0020899586 
458, 19963.4356690852 
459, 19947.7639408523 
460, 19890.5945291049 
461, 19809.9116629107 
462, 19723.390587795 
463, 19637.9622920943 
464, 19508.4145428188 
465, 19306.5799949746 
466, 19055.6586339798 
467, 18828.1815696943 
468, 18635.2550158141 
469, 18489.2343256651 
470, 18396.9490124561 
471, 18363.6476495122 
472, 18340.5327640826 
473, 18332.3024808739 
474, 18358.1402092788 
475, 18347.7701633656 
476, 18324.5638968765 
477, 18311.1558426169 
478, 18317.9819891266 
479, 18375.4437683042 
480, 18458.2269033617 
481, 18518.9703102796 
482, 18504.8456457952 
483, 18368.1833091614 
484, 18078.997217718 
485, 17644.822741726 
486, 17227.0604146758 
487, 16931.3923202065 
488, 16843.146739475 
489, 17039.4875379538 
490, 17350.5258812332 
491, 17606.3864032272 
492, 17697.9216811544 
493, 17731.4165378566 
494, 17778.6655647591 
495, 17875.1332562661 
496, 18013.0773635338 
497, 18055.3980995201 
498, 18003.9524776389 
499, 17889.6764841821 
500, 17738.4842034402 
501, 17618.5532722678 
502, 17566.4775184838 
503, 17603.5136014826 
504, 17763.2097817654 
505, 17988.8031033385 
506, 18220.3045112348 
507, 18404.1176556633 
508, 18545.2213639348 
509, 18656.049714052 
510, 18758.6460460925 
511, 18898.6893871466 
512, 18995.9868115067 
513, 19014.5255514899 
514, 18946.400325315 
515, 18790.0467261458 
516, 18578.1629062212 
517, 18370.4154995946 
518, 18251.9455948035 
519, 18406.2634022096 
520, 18849.0910053183 
521, 19474.0053929765 
522, 19996.0048371869 
523, 20383.6790738392 
524, 20654.2268005823 
525, 20857.1134709273 
526, 20941.9944830666 
527, 20973.9177339671 
528, 21081.8231684919 
529, 21503.5241205069 
530, 22052.6105941697 
531, 22514.4917485677 
532, 22714.591480248 
533, 22781.6459208898 
534, 22883.8581796766 
535, 23111.7715802391 
536, 23459.0005412667 
537, 23708.8979635089 
538, 23823.547997353 
539, 23836.3856827961 
540, 23827.805156553 
541, 23847.1569625429 
542, 23966.1182557172 
543, 24242.2903356717 
544, 24562.5026111063 
545, 24841.821861082 
546, 25034.7840815054 
547, 25146.9434498008 
548, 25222.011471274 
549, 25308.5724884176 
550, 25437.1300639572 
551, 25571.6512423562 
552, 25677.296866785 
553, 25755.3155605045 
554, 25834.8500969343 
555, 25893.7483948919 
556, 25869.0495357813 
557, 25725.6872951834 
558, 25486.5321340482 
559, 25281.7359941686 
560, 25188.3335911699 
561, 25233.7061739557 
562, 25347.78832396 
563, 25412.760510072 
564, 25371.5605173015 
565, 25244.3533834159 
566, 25066.1342645623 
567, 24884.9273161207 
568, 24729.2122670839 
569, 24567.4955820775 
570, 24360.4802652962 
571, 24165.5655911962 
572, 24091.2446756101 
573, 24109.8949708059 
574, 24099.979301162 
575, 23985.2569625231 
576, 23780.0451693438 
577, 23592.3157601415 
578, 23494.145020546 
579, 23524.8425937556 
580, 23654.7547648839 
581, 23878.4766213861 
582, 24148.7188883988 
583, 24380.0491494693 
584, 24527.3859350222 
585, 24529.1109012353 
586, 24377.5891386332 
587, 24186.0183779791 
588, 23942.0390232232 
589, 23607.5895401164 
590, 23187.9197611806 
591, 23040.2212945143 
592, 23150.7521842795 
593, 23353.2721693816 
594, 23342.4678181495 
595, 23223.8667238942 
596, 23059.330211081 
597, 22891.0056486375 
598, 22709.0664883414 
599, 22480.457906896 
600, 22226.9908179618 
601, 22007.8246860214 
602, 21836.8477886565 
603, 21745.7939190107 
604, 21734.434947124 
605, 21753.5716061303 
606, 21707.0840029529 
607, 21588.6562335397 
608, 21434.06624051 
609, 21281.465934734 
610, 21136.6173786327 
611, 21006.6397009511 
612, 20899.2761455731 
613, 20784.7288936024 
614, 20649.3972014424 
615, 20500.8084844278 
616, 20382.7445068028 
617, 20311.6499594438 
618, 20313.8714615767 
619, 20400.5204180973 
620, 20492.6595720661 
621, 20505.0059376475 
622, 20406.3482180738 
623, 20232.3576897699 
624, 20035.5962466517 
625, 19849.8219199334 
626, 19690.4853422 
627, 19543.2372163642 
628, 19394.6757628713 
629, 19255.2489429616 
630, 19156.7686143261 
631, 19167.9288135966 
632, 19243.4676839083 
633, 19338.2779919339 
634, 19436.327298787 
635, 19511.6721792847 
636, 19564.444687028 
637, 19601.7946535221 
638, 19617.9234665685 
639, 19593.2483725363 
640, 19510.9500071754 
641, 19365.5923299976 
642, 19253.2606415788 
643, 19188.1225129871 
644, 19146.6982495875 
645, 19065.0546342008 
646, 18935.9404757656 
647, 18774.4192757962 
648, 18611.3629129416 
649, 18482.1302690156 
650, 18385.0618018418 
651, 18336.0357976917 
652, 18363.7146987587 
653, 18326.7743805976 
654, 18126.0944812248 
655, 17743.8909814258 
656, 17296.3581898987 
657, 16976.1589471534 
658, 16985.0003730342 
659, 17423.5786367657 
660, 17868.7620251469 
661, 18124.9389518813 
662, 18178.1702112942 
663, 18202.2248076798 
664, 18184.2353439802 
665, 18155.892767084 
666, 18144.0032636264 
667, 18148.5413402054 
668, 18141.8785013022 
669, 18124.2543357229 
670, 18108.3664829835 
671, 18069.3411188921 
672, 18024.400880598 
673, 17996.399177184 
674, 18009.0732757275 
675, 18031.130683907 
676, 18046.8322201407 
677, 18051.3433128627 
678, 18060.5372869673 
679, 18063.4363017386 
680, 18058.4619055947 
681, 18049.0292694405 
682, 18035.1406763134 
683, 17991.7364048488 
684, 17838.4978621432 
685, 17425.2190667542 
686, 16687.3891884465 
687, 15693.1259541521 
688, 14687.9790369275 
689, 14274.1689189222 
690, 14577.826085512 
691, 15323.153311394 
692, 15995.8971253856 
693, 16576.832849678 
694, 16991.0636236022 
695, 17239.0576800326 
696, 17421.0740985353 
697, 17581.2647685741 
698, 17691.1468810652 
699, 17714.0079643422 
700, 17666.2115995568 
701, 17620.0189243069 
702, 17623.3728960991 
703, 17701.1317932167 
704, 17853.1259855762 
705, 18031.1072987354 
706, 18185.0759560901 
707, 18272.5795099512 
708, 18345.6312662583 
709, 18412.6404328526 
710, 18471.1385021062 
711, 18524.5825683202 
712, 18563.6376411155 
713, 18577.2559973323 
714, 18547.9209826936 
715, 18437.7992156185 
716, 18164.5091536061 
717, 17692.16590929 
718, 17050.9206547381 
719, 16523.5335423527 
720, 16333.9593604873 
721, 16563.7396183127 
722, 17038.2693815042 
723, 17361.6254004541 
724, 17400.9949886324 
725, 17233.840167923 
726, 17191.4608795596 
727, 17244.3168654826 
728, 17328.0923285747 
729, 17383.8373483735 
730, 17513.6064952955 
731, 17741.8132709551 
732, 18054.4381396247 
733, 18403.0578224957 
734, 18705.71824587 
735, 18902.8240033549 
736, 18969.2890161433 
737, 18960.4997883546 
738, 18941.1096623173 
739, 18927.1119179129 
740, 18895.2052955295 
741, 18892.0360792254 
742, 18925.7206270336 
743, 18990.7910474215 
744, 19073.2616959214 
745, 19128.317819411 
746, 19152.2598608281 
747, 19153.6938559961 
748, 19130.5057597682 
749, 19067.8797374584 
750, 18980.5473880367 
751, 18902.7821759094 
752, 18861.2870828576 
753, 18849.4087709324 
754, 18847.627298766 
755, 18825.5126164084 
756, 18730.3891454675 
757, 18335.0070440047 
758, 17271.3717479155 
759, 14907.2173208111 
760, 11427.6456698752 
761, 8018.08024634017 
762, 6108.47901849777 
763, 6086.47733561649 
764, 7078.22567182184 
765, 8639.98414710564 
766, 10719.2361528033 
767, 12990.9329333321 
768, 14964.1695130868 
769, 16336.7782404321 
770, 17106.1147982547 
771, 17485.7143566756 
772, 17632.8898463909 
773, 17667.7317801901 
774, 17657.3406364294 
775, 17610.2059463332 
776, 17548.801289605 
777, 17490.8814564878 
778, 17413.7199224205 
779, 17322.5312602481 
780, 17230.4674124255 
781, 17152.9274995417 
782, 17071.6821025305 
783, 16976.3132245781 
784, 16866.7312956254 
785, 16756.171797354 
786, 16646.0511960145 
787, 16518.6442009093 
788, 16358.778698014 
789, 16170.8338567455 
790, 15974.7785542747 
791, 15779.1562496252 
792, 15588.2286319933 
793, 15410.3935454919 
794, 15266.8072696805 
795, 15168.8275360588 
796, 15114.6069490256 
797, 15075.0673778252 
798, 15013.8472482614 
799, 14911.0269207018 
800, 14769.7848701437 
801, 14612.5265948794 
802, 14467.2705760698 
803, 14347.1443997084 
804, 14231.7774283043 
805, 14134.5467226666 
806, 14045.3437664622 
807, 13944.5033855916 
808, 13811.8432816929 
809, 13643.7866103267 
810, 13451.2270012226 
811, 13245.7818709769 
812, 12997.3958789388 
813, 12668.786851183 
814, 12257.301368126 
815, 11800.0986798727 
816, 11380.8148746443 
817, 11060.2821468216 
818, 10874.4784477775 
819, 10830.4831830315 
820, 10832.1058075606 
821, 10806.2764821572 
822, 10723.6129686628 
823, 10626.4425305038 
824, 10565.0638450419 
825, 10584.2751578418 
826, 10672.7913569212 
827, 10661.2248468945 
828, 10544.8423213627 
829, 10383.6815600661 
830, 10262.7449103719 
831, 10189.3289347125 
832, 10138.1733744825 
833, 10098.5415581476 
834, 10074.3982316365 
835, 10067.5323828984 
836, 10068.0070635105 
837, 10057.7568438195 
838, 10013.6767052073 
839, 9943.86905313014 
840, 9857.68558844586 
841, 9762.51265841829 
842, 9660.87970135632 
843, 9555.17366686768 
844, 9449.53550597869 
845, 9346.37065752406 
846, 9245.8088446997 
847, 9123.35646578591 
848, 8972.90953037288 
849, 8800.94081406894 
850, 8630.4611519303 
851, 8432.11050252479 
852, 8226.06489729085 
853, 8052.70295676745 
854, 7924.90550890138 
855, 7820.50135471633 
856, 7768.26667662603 
857, 7812.17361380169 
858, 7886.78706062559 
859, 7900.69352542179 
860, 7837.73854321043 
861, 7748.87079328715 
862, 7642.71287901308 
863, 7507.64822792677 
864, 7344.35843334611 
865, 7171.66899332267 
866, 7010.63374072112 
867, 6873.96522727838 
868, 6781.39375575591 
869, 6762.0327683844 
870, 6772.86878645831 
871, 6759.72715412031 
872, 6697.16910244223 
873, 6612.9639426243 
874, 6522.63003294667 
875, 6431.53741572759 
876, 6341.0237869054 
877, 6252.25444466965 
878, 6166.75787949038 
879, 6082.1510044459 
880, 5996.29460090616 
881, 5911.20896054714 
882, 5826.93504570141 
883, 5746.43195921885 
884, 5671.26978720452 
885, 5596.42136499663 
886, 5515.99521864733 
887, 5431.50183740555 
888, 5347.48101730376 
889, 5265.99197526845 
890, 5184.91183751558 
891, 5095.6008136806 
892, 4987.14164062529 
893, 4853.06989787286 
894, 4698.05349711577 
895, 4526.26077701318 
896, 4343.64979392471 
897, 4163.74242273826 
898, 3995.47884522708 
899, 3856.04323911439 
900, 3762.34287237332 
901, 3707.91595926914 
902, 3686.18081034592 
903, 3680.98524950088 
904, 3671.9437443747 
905, 3650.58650327196 
906, 3610.83149310392 
907, 3543.16756562846 
908, 3442.85378311472 
909, 3339.29413211232 
910, 3252.81252170476 
911, 3190.56301168084 
912, 3147.66783930617 
913, 3112.53696447701 
914, 3077.29050398068 
915, 3041.84808760593 
916, 3012.22787295002 
917, 2995.02292947307 
918, 2982.57665972844 
919, 2970.11639716386 
920, 2956.44997047569 
921, 2942.35978314236 
922, 2920.32280408229 
923, 2882.93950941569 
924, 2825.12792627935 
925, 2748.88033577718 
926, 2657.54696355293 
927, 2548.06953504247 
928, 2414.45884541458 
929, 2259.62812784525 
930, 2085.35439924839 
931, 1901.31092048089 
932, 1723.00532965276 
933, 1565.97773860598 
934, 1441.23261477297 
935, 1357.59833586954 
936, 1317.51497109125 
937, 1306.92279361933 
938, 1317.52226525707 
939, 1337.15589276588 
940, 1354.51517675272 
941, 1368.56955466845 
942, 1373.76114398305 
943, 1363.3062825935 
944, 1334.45514226116 
945, 1295.79788842308 
946, 1264.48451108936 
947, 1245.6851515279 
948, 1237.3310498126 
949, 1235.09999678827 
950, 1232.48152480602 
951, 1229.86356614701 
952, 1227.92968644617 
953, 1221.58314332587 
954, 1213.99339812884 
955, 1207.37447384629 
956, 1202.69598317604 
957, 1199.01284605701 
958, 1196.56248760791 
959, 1196.36370225476 
960, 1198.02941123569 
961, 1199.03432083747 
962, 1200.03328721083 
963, 1204.08755132978 
964, 1210.52778806942 
965, 1214.26955115137 
966, 1216.15021469692 
967, 1215.95798486585 
968, 1213.17549915494 
969, 1207.22817738886 
970, 1198.53974426411 
971, 1186.75376293252 
972, 1169.83569221513 
973, 1146.42318407753 
974, 1122.75957751446 
975, 1096.62104904605 
976, 1069.70639181983 
977, 1045.74849604561 
978, 1027.83063857794 
979, 1012.14360251841 
980, 997.36375123045 
981, 983.405087554748 
982, 970.699946836711 
983, 958.022365016544 
984, 943.722474572831 
985, 927.401920843586 
986, 910.593711215196 
987, 892.116339795999 
988, 872.31389358057 
989, 852.256128888286 
990, 832.986017156786 
991, 811.946460851003 
992, 791.937685860908 
993, 772.855495930883 
994, 752.896812237775 
995, 734.762590974675 
996, 715.227106503914 
997, 694.561495253389 
998, 674.553945895014 
999, 655.871525397588 
1000, 636.04136748927 
1001, 3994.42322835866 
1002, 3967.82335892407 
1003, 3946.95670334133 
1004, 3930.37397448115 
1005, 3911.86210113836 
1006, 3898.72083247377 
1007, 3890.57142699974 
1008, 3886.92121616673 
1009, 3889.24322639566 
1010, 3903.15418721907 
1011, 3913.18904646174 
1012, 3927.5028111529 
1013, 3938.09516248285 
1014, 3945.71053821794 
1015, 3949.06643346258 
1016, 3953.83897143502 
1017, 3959.77584343405 
1018, 3974.2271577019 
1019, 3990.8841558631 
1020, 4002.06868304142 
1021, 4016.00709978205 
1022, 4033.6583009257 
1023, 4049.76060146411 
1024, 4069.90097469054 
1025, 4101.12147687601 
1026, 4128.48256816532 
1027, 4143.28876672807 
1028, 4158.22102920864 
1029, 4173.95548099627 
1030, 4191.2744226363 
1031, 4215.77408477287 
1032, 4238.1813159698 
1033, 4256.81148448291 
1034, 4281.4187946388 
1035, 4305.97526021185 
1036, 4335.11561625857 
1037, 4359.12294793078 
1038, 4375.02391001047 
1039, 4386.98788768881 
1040, 4397.92525227437 
1041, 4407.79621801611 
1042, 4425.75134340797 
1043, 4446.0482492147 
1044, 4459.60028099099 
1045, 4475.80739210325 
1046, 4495.41222446858 
1047, 4516.11573411872 
1048, 4537.13417926267 
1049, 4559.0591057851 
1050, 4583.15715353596 
1051, 4608.61084675646 
1052, 4630.09060063289 
1053, 4657.62919741348 
1054, 4684.87492352953 
1055, 4702.98927004302 
1056, 4725.88938883782 
1057, 4749.97655929688 
1058, 4778.64658380942 
1059, 4820.70895258236 
1060, 4861.2527611506 
1061, 4905.91693462012 
1062, 4950.6066816588 
1063, 4996.43860233909 
1064, 5041.50845338976 
1065, 5095.34657604616 
1066, 5154.36214460406 
1067, 5214.68967635766 
1068, 5280.15157175488 
1069, 5343.36689733033 
1070, 5412.49595783415 
1071, 5492.51193346336 
1072, 5568.91657088119 
1073, 5647.96110582684 
1074, 5738.86374799455 
1075, 5815.73873549136 
1076, 5885.88092938449 
1077, 5957.04615453985 
1078, 6021.82976433631 
1079, 6074.75092869189 
1080, 6122.69351220256 
1081, 6169.30559506749 
1082, 6211.05252512643 
1083, 6246.11838488354 
1084, 6282.46181602177 
1085, 6318.01466690607 
1086, 6347.73521889623 
1087, 6376.24941190094 
1088, 6396.66026934425 
1089, 6413.43999503649 
1090, 6420.07509038723 
1091, 6419.21200921008 
1092, 6408.69155510999 
1093, 6390.76655973391 
1094, 6369.00242642247 
1095, 6347.05439720577 
1096, 6327.83938637336 
1097, 6306.3101268696 
1098, 6277.26902706722 
1099, 6249.37702582049 
1100, 6217.29544346528 
1101, 6186.45811472533 
1102, 6158.60186881566 
1103, 6124.90283511572 
1104, 6094.56503521202 
1105, 6049.2837031314 
1106, 5996.94446861852 
1107, 5933.07921574547 
1108, 5842.2142360501 
1109, 5728.64838860635 
1110, 5581.85899404445 
1111, 5404.75973370967 
1112, 5195.59173881969 
1113, 4940.40487298138 
1114, 4690.66754423536 
1115, 4399.2963695019 
1116, 4137.6854381626 
1117, 3861.38245761134 
1118, 3623.54302369981 
1119, 3402.98742130409 
1120, 3197.75684414935 
1121, 3031.27320939032 
1122, 2893.5157525206 
1123, 2788.73678652919 
1124, 2721.84007402753 
1125, 2686.74428060505 
1126, 2699.11654501349 
1127, 2712.16241799586 
1128, 2758.53183413427 
1129, 2801.13983752374 
1130, 2860.18654438637 
1131, 2915.06172639943 
1132, 2967.16692864963 
1133, 3035.94511494846 
1134, 3107.27737512526 
1135, 3190.35121917119 
1136, 3310.9380120158 
1137, 3431.48957288889 
1138, 3547.52627828281 
1139, 3650.86472411562 
1140, 3716.962423798 
1141, 3759.29770917611 
1142, 3775.15489472066 
1143, 3750.60657764492 
1144, 3731.10996238386 
1145, 3655.74905629382 
1146, 3640.61039381878 
1147, 3626.36527698587 
1148, 3655.77505799565 
1149, 3725.85585148681 
1150, 3823.28047801678 
1151, 3944.59802985267 
1152, 4082.66074944934 
1153, 4229.24964798115 
1154, 4400.72146288263 
1155, 4562.03960267276 
1156, 4737.48936103998 
1157, 4895.8126265933 
1158, 5054.79252435944 
1159, 5198.19091292225 
1160, 5336.64022168729 
1161, 5456.61985821553 
1162, 5563.82026056692 
1163, 5657.30390998656 
1164, 5736.46184361034 
1165, 5798.75881095154 
1166, 5851.74243500468 
1167, 5894.00041252478 
1168, 5917.85505585851 
1169, 5925.40254641788 
1170, 5923.04170527165 
1171, 5903.70002211558 
1172, 5877.96535160115 
1173, 5838.19901271457 
1174, 5797.6596235391 
1175, 5748.41356196067 
1176, 5694.70468744433 
1177, 5632.94560352024 
