Wavelength,0212202100056.asd
350, 3986.95507067252 
351, 4198.82270042251 
352, 4396.71886838001 
353, 4560.30932395129 
354, 4722.77668548986 
355, 4894.41089248453 
356, 5075.24571420585 
357, 5255.10012321155 
358, 5441.1596042994 
359, 5639.4753832158 
360, 5858.8053816414 
361, 6123.06471820412 
362, 6429.06660886329 
363, 6762.364124891 
364, 7100.75642427463 
365, 7442.0694994993 
366, 7769.38243010553 
367, 8059.48388477249 
368, 8283.55266739994 
369, 8417.71644677838 
370, 8468.52544176064 
371, 8461.34565741615 
372, 8431.11233489853 
373, 8424.86944331929 
374, 8447.58333832126 
375, 8474.51851822788 
376, 8503.15925298733 
377, 8523.50351266554 
378, 8514.53100686989 
379, 8442.60430929135 
380, 8347.90436102653 
381, 8240.3742861462 
382, 8118.26804049547 
383, 7966.03872156052 
384, 7811.49914496063 
385, 7704.86465579584 
386, 7706.29197230689 
387, 7870.1459687879 
388, 8106.71064536291 
389, 8313.98401408337 
390, 8403.06446782245 
391, 8504.01646311841 
392, 8604.98812673413 
393, 8684.69134723709 
394, 8749.81691387887 
395, 8932.92767039989 
396, 9294.79334385665 
397, 9858.67079778112 
398, 10647.0787106426 
399, 11544.163348923 
400, 12464.440164025 
401, 13359.3360478008 
402, 14215.5617366322 
403, 14922.5637138271 
404, 15431.8009095456 
405, 15828.5425699854 
406, 16144.4665026709 
407, 16427.7672871478 
408, 16737.1014703798 
409, 17157.4242224223 
410, 17662.241499116 
411, 18221.2946641882 
412, 18803.4705625873 
413, 19378.0691087387 
414, 19949.3415456714 
415, 20503.8926520371 
416, 20986.0754795776 
417, 21444.9605272499 
418, 21917.8265032901 
419, 22413.4690143376 
420, 22844.1807714533 
421, 23277.2239544162 
422, 23749.4974547322 
423, 24261.5771943318 
424, 24734.6418110364 
425, 25108.7069293585 
426, 25333.1314612374 
427, 25360.8125428243 
428, 25273.5295362782 
429, 25298.7260734735 
430, 25621.3358489652 
431, 26088.8355518733 
432, 26703.1020649322 
433, 27604.2691248853 
434, 28972.528266341 
435, 30424.2828514094 
436, 31536.9415107678 
437, 32224.4810843692 
438, 32952.7894053348 
439, 33702.9463229228 
440, 34410.9415590624 
441, 35051.5147086853 
442, 35884.3330789793 
443, 36761.3883145111 
444, 37566.0369998136 
445, 38225.4553238148 
446, 38757.5489520065 
447, 39236.5693861682 
448, 39743.6030843086 
449, 40368.2929101364 
450, 40902.1724105172 
451, 41196.0377293067 
452, 41190.4530041817 
453, 41095.8703631252 
454, 40875.0567199574 
455, 40590.91952814 
456, 40397.4136766089 
457, 40364.536788533 
458, 40391.8534330905 
459, 40375.7166347661 
460, 40278.5325228593 
461, 40130.3444444502 
462, 39968.9480524577 
463, 39811.675599814 
464, 39558.390774191 
465, 39162.4959408141 
466, 38670.4123728581 
467, 38216.904935607 
468, 37836.3771224414 
469, 37557.3418361367 
470, 37392.05356173 
471, 37341.5827000602 
472, 37310.670374119 
473, 37311.1955494192 
474, 37384.2819689925 
475, 37392.5292030445 
476, 37368.7857277806 
477, 37356.6286720136 
478, 37391.863023256 
479, 37520.3996474959 
480, 37694.396704456 
481, 37822.8148938898 
482, 37791.8483063795 
483, 37513.3105824036 
484, 36928.5226586609 
485, 36050.1171656089 
486, 35197.9625910475 
487, 34596.764105696 
488, 34425.5877551066 
489, 34836.4352924947 
490, 35491.0365568022 
491, 36033.391577125 
492, 36230.7740119717 
493, 36310.2228261572 
494, 36422.1771975587 
495, 36636.2284955941 
496, 36929.2301322756 
497, 37028.8447623041 
498, 36936.7936871652 
499, 36714.4380203773 
500, 36415.7446556732 
501, 36190.351683268 
502, 36107.5089852161 
503, 36201.2496593456 
504, 36549.0390851835 
505, 37031.1045182802 
506, 37521.8633813146 
507, 37910.4944558897 
508, 38204.4038715779 
509, 38434.2782328033 
510, 38649.3262660604 
511, 38938.1900943375 
512, 39143.1247971406 
513, 39188.0062349555 
514, 39050.8417459953 
515, 38736.5634351153 
516, 38310.7567440582 
517, 37892.3444367475 
518, 37650.9237832788 
519, 37975.756236665 
520, 38901.2298366692 
521, 40205.8430109445 
522, 41295.580979816 
523, 42112.4199246363 
524, 42689.9778776269 
525, 43122.5421000152 
526, 43316.0882347528 
527, 43400.6584600812 
528, 43638.6301107647 
529, 44522.0602163045 
530, 45672.2991229067 
531, 46647.361598873 
532, 47083.0350862552 
533, 47229.0874762318 
534, 47444.6147760614 
535, 47922.5640659965 
536, 48647.2818635781 
537, 49172.3863076541 
538, 49420.1154115389 
539, 49458.7679462025 
540, 49449.6965057681 
541, 49502.5245334392 
542, 49765.4825315408 
543, 50352.9138639299 
544, 51025.7543341857 
545, 51614.1657127704 
546, 52026.4530073887 
547, 52269.1341813511 
548, 52430.4139817023 
549, 52614.2176780272 
550, 52887.5393653378 
551, 53173.4069141645 
552, 53396.6380352532 
553, 53561.9375143559 
554, 53735.7844764969 
555, 53870.7476434602 
556, 53833.7185920262 
557, 53550.0486048731 
558, 53067.1439209688 
559, 52655.4902511014 
560, 52474.4547203873 
561, 52581.0848525543 
562, 52836.6626300758 
563, 52991.7174513441 
564, 52926.0564584184 
565, 52684.6077027647 
566, 52336.4259216391 
567, 51981.3701161054 
568, 51682.1944932036 
569, 51386.1084179416 
570, 50993.1006533642 
571, 50619.0102417601 
572, 50495.3327181404 
573, 50562.1285596148 
574, 50569.5031047201 
575, 50359.180297093 
576, 49956.4751109598 
577, 49576.2327373093 
578, 49371.6356796529 
579, 49430.3760192534 
580, 49684.5603354189 
581, 50127.9437789699 
582, 50666.4825252085 
583, 51125.6860130382 
584, 51413.6505184851 
585, 51407.158078282 
586, 51094.4244279057 
587, 50710.9820090938 
588, 50240.6721176696 
589, 49606.5182114132 
590, 48809.3112336897 
591, 48534.8307783892 
592, 48773.280129137 
593, 49196.2750179881 
594, 49174.3857798386 
595, 48927.2637093653 
596, 48573.2196052992 
597, 48192.9063669851 
598, 47777.3848438234 
599, 47276.9015095374 
600, 46732.5337429262 
601, 46249.6449458191 
602, 45880.5432730822 
603, 45684.3596299697 
604, 45655.6895225291 
605, 45699.1748608602 
606, 45601.598612426 
607, 45350.8201071401 
608, 45026.7873130834 
609, 44709.411233583 
610, 44408.7663548417 
611, 44137.2640295631 
612, 43908.8261484238 
613, 43668.8439302927 
614, 43388.6095187082 
615, 43082.4636442897 
616, 42842.5962605606 
617, 42698.090671309 
618, 42706.9640782385 
619, 42898.110158318 
620, 43102.5208301545 
621, 43135.2646868446 
622, 42934.2026720517 
623, 42589.134792631 
624, 42194.87651461 
625, 41824.0472127119 
626, 41515.6510881918 
627, 41246.8230199405 
628, 40987.4023172592 
629, 40739.3432016696 
630, 40541.3252542519 
631, 40546.5896432041 
632, 40674.0998890259 
633, 40842.3329735917 
634, 41027.7559864451 
635, 41172.0464220551 
636, 41272.1766384511 
637, 41339.8404787865 
638, 41360.3632158058 
639, 41296.8723767028 
640, 41118.1261586955 
641, 40815.3830672909 
642, 40579.8503623508 
643, 40442.3594102446 
644, 40359.8985758543 
645, 40210.6856686306 
646, 39977.7459397447 
647, 39684.25260525 
648, 39382.3005726444 
649, 39133.0410765214 
650, 38931.004551473 
651, 38815.2356729102 
652, 38858.3533384569 
653, 38769.3477412166 
654, 38339.775945318 
655, 37531.3320535049 
656, 36591.7273294371 
657, 35910.9318988559 
658, 35910.9158529509 
659, 36810.4829111547 
660, 37738.8794191244 
661, 38275.5514553566 
662, 38386.8728844717 
663, 38442.9023821537 
664, 38410.3968890065 
665, 38353.0547296888 
666, 38327.8079635945 
667, 38342.7838536877 
668, 38333.6748243306 
669, 38299.2226297211 
670, 38267.6311535091 
671, 38193.027042428 
672, 38104.738563862 
673, 38048.1169816597 
674, 38077.9235974881 
675, 38131.6718403426 
676, 38172.0595159708 
677, 38185.4689959473 
678, 38211.5416242086 
679, 38226.036135274 
680, 38224.6351633573 
681, 38213.2779107934 
682, 38187.8160376783 
683, 38102.0832074261 
684, 37794.2079217836 
685, 36953.1990278704 
686, 35475.3562591042 
687, 33497.9484529779 
688, 31503.1410468962 
689, 30677.1115598688 
690, 31301.7511693737 
691, 32828.3680588214 
692, 34215.2257545991 
693, 35438.6846257444 
694, 36337.1554769431 
695, 36884.6002012393 
696, 37237.5031455481 
697, 37518.6917311474 
698, 37696.9170517192 
699, 37720.7241151472 
700, 37642.7330951064 
701, 37560.6613089044 
702, 37553.2170757813 
703, 37676.7367147367 
704, 37954.4166409018 
705, 38284.7293306152 
706, 38565.9059312456 
707, 38721.3770594144 
708, 38841.5630325595 
709, 38947.9198797932 
710, 39042.869127165 
711, 39133.1812484664 
712, 39189.2664437382 
713, 39199.1904884421 
714, 39150.1403666195 
715, 38971.7830335989 
716, 38517.0915570043 
717, 37719.5689108312 
718, 36627.3917011625 
719, 35692.3791071907 
720, 35324.0564363761 
721, 35694.8895616417 
722, 36512.7225982338 
723, 37097.0024162913 
724, 37204.4246960712 
725, 36946.7412005413 
726, 36889.329494103 
727, 36975.745078338 
728, 37096.2090567643 
729, 37157.5735694848 
730, 37357.8274512133 
731, 37744.6135909012 
732, 38283.4217744517 
733, 38852.8410853617 
734, 39341.043025536 
735, 39648.143260721 
736, 39725.140563859 
737, 39671.7451417788 
738, 39592.4253949915 
739, 39511.7202571334 
740, 39392.8603538924 
741, 39345.8759877389 
742, 39382.1760176285 
743, 39488.0457994543 
744, 39643.3843322149 
745, 39751.9740376778 
746, 39799.2690686892 
747, 39798.2292901384 
748, 39750.5451774114 
749, 39629.5116021714 
750, 39460.9842246672 
751, 39307.7567032878 
752, 39234.3910301366 
753, 39220.6484431879 
754, 39225.3083138407 
755, 39193.166016495 
756, 39014.6320206251 
757, 38220.4735973884 
758, 36063.7198533263 
759, 31281.8610641752 
760, 24250.7005616213 
761, 17371.629107074 
762, 13548.3885974761 
763, 13613.6558775017 
764, 15737.6601379495 
765, 18978.344773107 
766, 23209.5502775597 
767, 27792.0337220434 
768, 31754.9761561864 
769, 34504.6648394552 
770, 36044.5424855576 
771, 36802.0548348102 
772, 37099.962028619 
773, 37182.9775353584 
774, 37175.537610584 
775, 37098.8264690793 
776, 36995.6485228365 
777, 36897.6960810421 
778, 36762.6937095606 
779, 36597.7415619714 
780, 36431.3832240049 
781, 36300.0372539642 
782, 36151.9060979285 
783, 35974.3207546095 
784, 35773.0580967101 
785, 35571.5085603068 
786, 35376.1615308603 
787, 35151.8672597509 
788, 34866.3852439059 
789, 34525.0759223567 
790, 34156.448084621 
791, 33770.5691798629 
792, 33373.9837025479 
793, 32989.0931273473 
794, 32677.8379276444 
795, 32475.9427078985 
796, 32383.1131792643 
797, 32322.1973039556 
798, 32203.2472079762 
799, 31984.3319146617 
800, 31688.3796697776 
801, 31370.5443025035 
802, 31074.5102116921 
803, 30815.1389484372 
804, 30555.0309323491 
805, 30323.2968169955 
806, 30108.4111274091 
807, 29878.905741136 
808, 29590.0093056578 
809, 29244.5936081084 
810, 28867.6747119885 
811, 28481.6726080155 
812, 28029.4487092626 
813, 27433.2442651815 
814, 26678.2151108182 
815, 25822.9863746281 
816, 25012.8252085406 
817, 24358.3840688728 
818, 23931.3881874486 
819, 23757.2676689996 
820, 23683.2928067609 
821, 23580.099308198 
822, 23389.8042282214 
823, 23181.6162507293 
824, 23037.1178654992 
825, 23033.2202105121 
826, 23149.3679266742 
827, 23082.5812389489 
828, 22831.0974529436 
829, 22496.961713182 
830, 22223.1794098713 
831, 22030.5507456744 
832, 21878.3407419101 
833, 21747.820928155 
834, 21644.8823444857 
835, 21585.2458356587 
836, 21546.0347529579 
837, 21490.4718025576 
838, 21376.1597504615 
839, 21211.7801576898 
840, 21017.0565082525 
841, 20807.6451279583 
842, 20586.5379867033 
843, 20356.12043089 
844, 20129.0332735118 
845, 19913.009460297 
846, 19704.0557089708 
847, 19445.8023702825 
848, 19131.7457743363 
849, 18780.6765108169 
850, 18427.8850332352 
851, 18019.4245837993 
852, 17597.9047695604 
853, 17244.2186856305 
854, 16980.011496581 
855, 16767.2657071175 
856, 16672.0297669962 
857, 16787.2913770438 
858, 16963.4958089406 
859, 17012.0651575249 
860, 16898.1902157588 
861, 16724.289421434 
862, 16515.1043159201 
863, 16243.1932025072 
864, 15910.1938698895 
865, 15560.1789516389 
866, 15231.2344299215 
867, 14956.0620062373 
868, 14779.9989476541 
869, 14762.0604658704 
870, 14810.7136372285 
871, 14808.97650067 
872, 14699.8524039439 
873, 14538.2689834216 
874, 14362.8247376683 
875, 14188.3542027023 
876, 14018.1861554439 
877, 13850.6868879254 
878, 13685.8437705217 
879, 13523.7868411886 
880, 13362.5546253231 
881, 13193.8213299754 
882, 13028.3948160405 
883, 12872.2028993617 
884, 12725.8906525447 
885, 12582.0956909637 
886, 12424.4079394519 
887, 12256.5343085304 
888, 12089.9099496092 
889, 11927.5196111646 
890, 11768.4843077593 
891, 11593.7081207279 
892, 11378.9702816114 
893, 11118.1440804535 
894, 10816.5281263695 
895, 10480.9772011768 
896, 10122.1013933984 
897, 9758.94961877169 
898, 9412.62306060984 
899, 9119.43065682626 
900, 8914.59433217978 
901, 8789.79448828857 
902, 8727.90588542202 
903, 8698.68561279196 
904, 8666.98762788128 
905, 8616.95168699537 
906, 8526.94615171376 
907, 8379.92382929541 
908, 8174.10298038449 
909, 7956.9473301358 
910, 7772.1416713138 
911, 7636.03782689024 
912, 7539.10786615583 
913, 7456.93991316264 
914, 7375.89193868974 
915, 7293.27363054809 
916, 7215.88319980564 
917, 7156.9910752748 
918, 7108.76200871666 
919, 7063.30905956361 
920, 7015.10444307599 
921, 6964.87347769778 
922, 6899.02830829747 
923, 6806.01940403642 
924, 6678.92278811449 
925, 6519.69863440734 
926, 6330.71512465688 
927, 6104.59724425024 
928, 5829.52812551391 
929, 5506.24679969689 
930, 5137.82953645331 
931, 4744.86798086514 
932, 4360.37189504684 
933, 4015.13719289908 
934, 3739.140619276 
935, 3550.57275469351 
936, 3452.27252656373 
937, 3425.69287119217 
938, 3444.04561449435 
939, 3480.39083046117 
940, 3513.29545793894 
941, 3537.73036045776 
942, 3543.88467194195 
943, 3513.92620312027 
944, 3440.05240661702 
945, 3352.11073192806 
946, 3279.73400325381 
947, 3235.66928419932 
948, 3217.80288536131 
949, 3210.62346458869 
950, 3202.3849858958 
951, 3189.71023650474 
952, 3173.35199494616 
953, 3154.1408624847 
954, 3136.2426316858 
955, 3120.55252968794 
956, 3107.02915677463 
957, 3095.97165451816 
958, 3088.88198539808 
959, 3084.84951066615 
960, 3083.38971635853 
961, 3085.38710324983 
962, 3086.60454387173 
963, 3090.31651384475 
964, 3097.55811705594 
965, 3104.73487254415 
966, 3107.33722073842 
967, 3104.56960890682 
968, 3096.32305593348 
969, 3082.48234571259 
970, 3062.57262807587 
971, 3035.05971384569 
972, 2999.23601372485 
973, 2955.10917297171 
974, 2901.60288350087 
975, 2847.30393212493 
976, 2795.21948244965 
977, 2746.56071459377 
978, 2708.08961226554 
979, 2677.15802075529 
980, 2650.38640237105 
981, 2624.5496843784 
982, 2597.92731340726 
983, 2567.90289098244 
984, 2536.53903131702 
985, 2504.57346081349 
986, 2468.7012707587 
987, 2428.31086366956 
988, 2387.91915548624 
989, 2347.23533708675 
990, 2301.22791332311 
991, 2257.0123107953 
992, 2212.66045739205 
993, 2168.39962410154 
994, 2125.9576379797 
995, 2083.75674989898 
996, 2038.70951165246 
997, 1992.24326926998 
998, 1946.79805714714 
999, 1900.8722496499 
1000, 1855.12349501733 
1001, 11846.5158519919 
1002, 11847.2421354933 
1003, 11851.6995133024 
1004, 11858.8065625096 
1005, 11871.123432809 
1006, 11900.5607639497 
1007, 11943.8221589745 
1008, 11998.6521949308 
1009, 12060.0708121141 
1010, 12141.4569114501 
1011, 12217.6795750981 
1012, 12296.6874683349 
1013, 12376.6370770042 
1014, 12461.3810551423 
1015, 12535.0430357911 
1016, 12606.5766873656 
1017, 12681.8741529138 
1018, 12761.1849446562 
1019, 12842.3637226728 
1020, 12925.9024951794 
1021, 13012.1344992106 
1022, 13099.9113527725 
1023, 13186.3125662253 
1024, 13280.798764333 
1025, 13370.0190828727 
1026, 13455.2267125646 
1027, 13542.5049343771 
1028, 13620.9261498369 
1029, 13701.8526876023 
1030, 13786.959355856 
1031, 13857.3506342312 
1032, 13913.5255541439 
1033, 13966.648303107 
1034, 14014.0772092972 
1035, 14058.9965445152 
1036, 14099.2626144671 
1037, 14140.2665698903 
1038, 14175.2115630241 
1039, 14202.5606151076 
1040, 14226.2065426294 
1041, 14249.651746449 
1042, 14271.1419248011 
1043, 14284.9625486065 
1044, 14296.6171584552 
1045, 14309.2347827975 
1046, 14319.7924319518 
1047, 14330.5102813659 
1048, 14342.3195240608 
1049, 14355.3305448123 
1050, 14368.7850833326 
1051, 14384.2920062997 
1052, 14406.5896599906 
1053, 14426.1315020829 
1054, 14439.1328956919 
1055, 14455.5913302778 
1056, 14479.6562893932 
1057, 14506.5667096345 
1058, 14536.6858927653 
1059, 14580.2181721692 
1060, 14631.7343565321 
1061, 14687.3531575176 
1062, 14755.9931760225 
1063, 14839.7180619731 
1064, 14922.5483955033 
1065, 15018.1955433954 
1066, 15124.0976926767 
1067, 15237.2614744992 
1068, 15369.3749401122 
1069, 15515.0168732001 
1070, 15665.7666762095 
1071, 15832.2627418669 
1072, 16008.1272133363 
1073, 16183.0289985492 
1074, 16370.6445788147 
1075, 16541.9660742811 
1076, 16714.7456708025 
1077, 16872.8329137604 
1078, 17007.2344871724 
1079, 17131.7473735842 
1080, 17235.7072178044 
1081, 17331.6327395994 
1082, 17424.872471612 
1083, 17511.6691530309 
1084, 17605.4158395553 
1085, 17698.6706111629 
1086, 17778.0400918943 
1087, 17855.7897528639 
1088, 17917.2366572518 
1089, 17966.4347822991 
1090, 18000.7170309558 
1091, 18022.7239732899 
1092, 18037.881408413 
1093, 18021.6211924464 
1094, 17995.8989947571 
1095, 17968.0509784678 
1096, 17930.6291735707 
1097, 17902.9773659491 
1098, 17871.7909409818 
1099, 17845.9968089691 
1100, 17826.1773498384 
1101, 17798.5609493614 
1102, 17779.7816648959 
1103, 17742.309538805 
1104, 17707.6960652527 
1105, 17639.1950428176 
1106, 17551.6216760048 
1107, 17424.8307912118 
1108, 17231.5467433157 
1109, 16974.1620455107 
1110, 16618.6165165489 
1111, 16182.4231007618 
1112, 15669.0603453556 
1113, 15040.1808327271 
1114, 14408.6664116753 
1115, 13669.4145150794 
1116, 13001.5735772347 
1117, 12269.8914056713 
1118, 11654.2478769722 
1119, 11087.1749427114 
1120, 10573.79594158 
1121, 10148.9541999548 
1122, 9800.97650054083 
1123, 9556.17358177497 
1124, 9392.08740876876 
1125, 9323.381947781 
1126, 9391.01467539788 
1127, 9452.42865819213 
1128, 9597.35224169879 
1129, 9739.04087504701 
1130, 9922.98395490806 
1131, 10098.472589403 
1132, 10272.7196672428 
1133, 10489.029931176 
1134, 10711.7096571542 
1135, 10961.5732434416 
1136, 11320.7018317058 
1137, 11699.0486645935 
1138, 12072.7751057162 
1139, 12422.7230503423 
1140, 12664.3396588102 
1141, 12847.771931856 
1142, 12944.2267295733 
1143, 12919.0620007521 
1144, 12917.6736159227 
1145, 12758.0698570575 
1146, 12775.5075507457 
1147, 12794.7809745734 
1148, 12950.8814920547 
1149, 13233.512254362 
1150, 13585.3097681485 
1151, 14038.9657914558 
1152, 14544.6363588014 
1153, 15072.3380432259 
1154, 15681.194993434 
1155, 16258.3518158349 
1156, 16868.9459356776 
1157, 17445.0855188448 
1158, 18029.834473359 
1159, 18576.6367452968 
1160, 19109.8314072808 
1161, 19605.8295886101 
1162, 20083.0758680746 
1163, 20519.2890042363 
1164, 20921.7278942047 
1165, 21286.6416141093 
1166, 21616.3974491851 
1167, 21904.2139817564 
1168, 22159.30035085 
1169, 22379.4126894459 
1170, 22561.0640990937 
1171, 22699.5220503711 
1172, 22818.3299421472 
1173, 22896.1944351787 
1174, 22960.4792910688 
1175, 22997.513257427 
1176, 23022.9700150235 
1177, 23011.2007004288 
