Wavelength,0212202100098.asd
350, 2684.62490069342 
351, 2824.70978732173 
352, 2954.18223799395 
353, 3065.87226025152 
354, 3173.03809218055 
355, 3284.81572919679 
356, 3404.84863614378 
357, 3525.02457768269 
358, 3646.68543705989 
359, 3775.19723142915 
360, 3919.47098767033 
361, 4093.3117929025 
362, 4293.77034902572 
363, 4512.52471228558 
364, 4737.70329921916 
365, 4964.58363605435 
366, 5180.49306064866 
367, 5370.15014253592 
368, 5516.79664365287 
369, 5603.88688822082 
370, 5635.29917638665 
371, 5627.76005874473 
372, 5605.89365066995 
373, 5597.91226636146 
374, 5608.21805141355 
375, 5623.79447728484 
376, 5640.47327569354 
377, 5651.16242388927 
378, 5642.05197889155 
379, 5591.44237039314 
380, 5526.07498181096 
381, 5453.10089970599 
382, 5371.19728553222 
383, 5267.63408783177 
384, 5162.29509170304 
385, 5089.53331271105 
386, 5089.4002386511 
387, 5194.05022286846 
388, 5345.72871151334 
389, 5479.41095564417 
390, 5538.69611271673 
391, 5602.57283339854 
392, 5665.74382538401 
393, 5716.36558207306 
394, 5756.00142889115 
395, 5872.99703457749 
396, 6107.13956487672 
397, 6472.9622653119 
398, 6983.70079961635 
399, 7567.29372088502 
400, 8168.36373530636 
401, 8752.55350264092 
402, 9308.39242840194 
403, 9766.80783765688 
404, 10098.0441393225 
405, 10355.6250340638 
406, 10559.3597408593 
407, 10740.0192211875 
408, 10936.0826821389 
409, 11205.9499041678 
410, 11530.572065233 
411, 11889.5793965513 
412, 12263.334807909 
413, 12635.7079113555 
414, 13003.5195518791 
415, 13356.5113223011 
416, 13666.954464974 
417, 13961.2354071484 
418, 14262.5402580052 
419, 14577.461805968 
420, 14851.6976746975 
421, 15128.8727720409 
422, 15431.3398573987 
423, 15757.2828816836 
424, 16059.0995894205 
425, 16296.7572790888 
426, 16437.0332520643 
427, 16451.3923153966 
428, 16390.3953474598 
429, 16400.6233073644 
430, 16602.1482082142 
431, 16898.1461654477 
432, 17288.8132377381 
433, 17863.6698689303 
434, 18738.6711323966 
435, 19670.3923909353 
436, 20385.3481799149 
437, 20825.3458844333 
438, 21286.1419835892 
439, 21764.9417026669 
440, 22217.2989103416 
441, 22621.4892025122 
442, 23147.567727272 
443, 23704.7835246743 
444, 24217.305726383 
445, 24633.8027872032 
446, 24969.933450329 
447, 25272.0704096203 
448, 25591.0797267708 
449, 25984.8554531705 
450, 26322.0213992408 
451, 26506.2389988106 
452, 26498.0397629298 
453, 26433.5399791263 
454, 26286.8179999136 
455, 26098.0772471039 
456, 25967.5516216355 
457, 25938.4994499919 
458, 25947.5694465379 
459, 25929.5664205661 
460, 25861.0603793642 
461, 25762.0099419511 
462, 25654.4481291128 
463, 25547.0819941804 
464, 25379.0565973063 
465, 25119.2753301039 
466, 24798.1748274749 
467, 24504.7170871407 
468, 24255.6109531323 
469, 24068.7235093243 
470, 23953.2280013406 
471, 23912.448549451 
472, 23885.3365736198 
473, 23878.2327522711 
474, 23915.7814329186 
475, 23910.2974174121 
476, 23884.6767148939 
477, 23868.157096762 
478, 23884.1229158971 
479, 23964.9642087877 
480, 24076.3047248496 
481, 24157.0392245194 
482, 24140.2810220817 
483, 23965.2973211949 
484, 23593.2870580778 
485, 23032.8468761686 
486, 22487.3268984891 
487, 22100.29692304 
488, 21986.0100932396 
489, 22240.8155473183 
490, 22652.0752272142 
491, 22993.6865942302 
492, 23116.8933894406 
493, 23164.6179857726 
494, 23232.2180985702 
495, 23364.4931020673 
496, 23547.8960242334 
497, 23609.5471756293 
498, 23548.9988732743 
499, 23403.7845033077 
500, 23207.2066290286 
501, 23058.0590885579 
502, 22999.4727499562 
503, 23051.1350979455 
504, 23265.2956034347 
505, 23565.2887812922 
506, 23872.1543912678 
507, 24117.8833513824 
508, 24304.3342076612 
509, 24450.3187350173 
510, 24586.8343901327 
511, 24769.736471802 
512, 24898.2899520436 
513, 24925.3635701222 
514, 24838.4536016132 
515, 24635.7319516571 
516, 24362.7208933862 
517, 24095.8809649421 
518, 23938.2183496398 
519, 24138.3250608049 
520, 24718.8064193341 
521, 25540.8608846404 
522, 26234.0802428145 
523, 26750.853323244 
524, 27112.6483614668 
525, 27387.4316583559 
526, 27507.9075391903 
527, 27555.7110371756 
528, 27698.6436390588 
529, 28252.1289232614 
530, 28978.1460402265 
531, 29594.1539750044 
532, 29866.4031910464 
533, 29959.485034395 
534, 30095.0084271301 
535, 30394.4720686867 
536, 30853.5366759571 
537, 31188.4622498485 
538, 31346.3803376124 
539, 31368.4254075814 
540, 31360.9881978646 
541, 31390.8664710083 
542, 31552.7060097873 
543, 31921.3606596022 
544, 32344.4295510242 
545, 32715.63895086 
546, 32976.9114192221 
547, 33130.0542796905 
548, 33232.1860588184 
549, 33348.2252093568 
550, 33520.1397198104 
551, 33703.5786170694 
552, 33844.2783436951 
553, 33945.0999109558 
554, 34053.4454491542 
555, 34135.798763959 
556, 34109.4431289575 
557, 33928.2044450611 
558, 33620.6109522545 
559, 33355.6965035001 
560, 33234.9002041834 
561, 33296.1229830283 
562, 33451.9813640976 
563, 33544.5908128748 
564, 33497.3357980427 
565, 33337.5555962774 
566, 33109.0889430917 
567, 32874.6528664032 
568, 32673.4933355658 
569, 32471.8253259899 
570, 32208.9585221377 
571, 31958.2965795407 
572, 31865.1617222969 
573, 31894.856493969 
574, 31887.8196935922 
575, 31743.4305024386 
576, 31479.7903432862 
577, 31234.9904440608 
578, 31104.813596269 
579, 31143.51115774 
580, 31312.9371112162 
581, 31603.2017061988 
582, 31952.9791825554 
583, 32254.1385643376 
584, 32446.8582735592 
585, 32450.5490244517 
586, 32254.6183749488 
587, 32003.6394008349 
588, 31693.3233482569 
589, 31273.9782819791 
590, 30744.6068877603 
591, 30554.4923361762 
592, 30699.5036581921 
593, 30969.7577613242 
594, 30961.4566974921 
595, 30810.4565539988 
596, 30592.9574071465 
597, 30361.961328688 
598, 30111.4358040732 
599, 29803.5220044891 
600, 29465.3457413188 
601, 29168.9347138419 
602, 28938.9072466222 
603, 28815.3158011933 
604, 28797.4716499733 
605, 28825.0331385105 
606, 28763.5116528735 
607, 28604.8130590393 
608, 28399.08800833 
609, 28197.9500866135 
610, 28007.4618271768 
611, 27835.1165934184 
612, 27689.4255026735 
613, 27536.3518251287 
614, 27358.5070426684 
615, 27164.7995300465 
616, 27011.1766215449 
617, 26915.7340183344 
618, 26915.8460512765 
619, 27031.2941666819 
620, 27157.9048820839 
621, 27175.8039054725 
622, 27044.2583552565 
623, 26821.1519110082 
624, 26567.3173008059 
625, 26325.4328964512 
626, 26117.5962865254 
627, 25932.2440380486 
628, 25750.0617349731 
629, 25577.207546036 
630, 25446.0597906497 
631, 25457.1472726439 
632, 25551.7932660096 
633, 25671.5933420905 
634, 25798.4088220648 
635, 25897.5254742459 
636, 25967.1778776414 
637, 26015.0475877294 
638, 26035.1349979944 
639, 26000.1958869799 
640, 25890.1898053061 
641, 25702.2773238588 
642, 25555.0097550587 
643, 25467.506116853 
644, 25412.2114201348 
645, 25310.8984097444 
646, 25155.3216180875 
647, 24958.9547699663 
648, 24754.0339936868 
649, 24587.6417652744 
650, 24458.9863340883 
651, 24390.7031654688 
652, 24422.4132482038 
653, 24369.2795227535 
654, 24103.0646474592 
655, 23600.7986969618 
656, 23011.9354490671 
657, 22585.3594834978 
658, 22586.1140680402 
659, 23151.0166172166 
660, 23740.7748790653 
661, 24083.7415962493 
662, 24155.2735645582 
663, 24190.6786642234 
664, 24170.8099389696 
665, 24134.4262526263 
666, 24116.2996266676 
667, 24123.748729999 
668, 24115.3056844181 
669, 24092.7409081679 
670, 24076.6758002126 
671, 24028.1418403724 
672, 23970.5200649361 
673, 23935.0711186713 
674, 23953.7936944996 
675, 23986.0164002532 
676, 24011.0223374576 
677, 24021.9728778377 
678, 24038.4281575379 
679, 24046.958916389 
680, 24045.1346633209 
681, 24036.512624628 
682, 24022.7848032563 
683, 23970.4347177931 
684, 23773.6315803273 
685, 23235.4072838813 
686, 22276.9743462978 
687, 20986.6465560944 
688, 19680.3304548939 
689, 19130.6572580926 
690, 19526.8195261684 
691, 20514.5205818502 
692, 21415.5156806673 
693, 22207.7441952027 
694, 22785.1947568956 
695, 23137.5632712614 
696, 23382.9498474131 
697, 23590.1250307921 
698, 23731.6737922076 
699, 23767.5697426682 
700, 23722.9246305428 
701, 23678.1148427274 
702, 23689.9925802317 
703, 23792.2442240883 
704, 23992.8088034243 
705, 24228.2964214352 
706, 24433.5173772393 
707, 24555.4862385443 
708, 24657.3438316566 
709, 24748.9183475308 
710, 24828.3957244509 
711, 24906.6544514049 
712, 24962.8083476716 
713, 24985.1250559297 
714, 24959.9756863008 
715, 24839.9840980615 
716, 24521.3175479631 
717, 23956.6025576786 
718, 23179.2813826376 
719, 22529.1962639867 
720, 22288.5669128398 
721, 22567.8125728364 
722, 23159.3341980089 
723, 23578.8856512487 
724, 23653.6509848637 
725, 23464.6930390081 
726, 23419.3266136219 
727, 23488.9656719538 
728, 23596.3802021534 
729, 23664.0275822144 
730, 23826.0402915914 
731, 24112.6338671767 
732, 24504.0341720297 
733, 24935.9392353416 
734, 25314.0354306203 
735, 25560.1515560227 
736, 25637.0012840952 
737, 25621.7421464489 
738, 25592.3237819725 
739, 25566.3352369318 
740, 25514.0186786831 
741, 25502.7329106476 
742, 25545.7772644196 
743, 25634.713812587 
744, 25744.4017403941 
745, 25823.1522613838 
746, 25862.6384150051 
747, 25869.652066325 
748, 25844.8909291619 
749, 25771.3348637739 
750, 25665.5282835473 
751, 25567.8244107627 
752, 25520.81080239 
753, 25513.2733509617 
754, 25519.1964459918 
755, 25501.7939485078 
756, 25386.0312814066 
757, 24864.3927784638 
758, 23444.5331456014 
759, 20288.7170330511 
760, 15637.6527869232 
761, 11062.0728586633 
762, 8470.78770706281 
763, 8440.56786591342 
764, 9788.4738462903 
765, 11905.5993499416 
766, 14710.3545449684 
767, 17780.5267746048 
768, 20458.8514595701 
769, 22335.231145895 
770, 23395.5593504288 
771, 23928.6744585642 
772, 24145.62961728 
773, 24208.4027639241 
774, 24210.6531201945 
775, 24165.7259563086 
776, 24100.9862698997 
777, 24036.8684384687 
778, 23949.3460312612 
779, 23842.1588331627 
780, 23733.1378023859 
781, 23645.9215385207 
782, 23550.6583847793 
783, 23434.6391675684 
784, 23300.4947424424 
785, 23169.2971870549 
786, 23034.6792919815 
787, 22877.3577864508 
788, 22680.9769644726 
789, 22444.8713522004 
790, 22194.8205771864 
791, 21939.7907260026 
792, 21683.5428120094 
793, 21438.7248592846 
794, 21241.5788088916 
795, 21112.6108592939 
796, 21050.4594990832 
797, 21004.9069439237 
798, 20925.7657428293 
799, 20787.7498177557 
800, 20598.2363918506 
801, 20386.3371876956 
802, 20189.7088822247 
803, 20025.0888487918 
804, 19861.7084935115 
805, 19721.1349227603 
806, 19592.2529707763 
807, 19449.2591284459 
808, 19259.4514679584 
809, 19030.1929175122 
810, 18775.4338136614 
811, 18503.9571095823 
812, 18181.7512266569 
813, 17756.864948357 
814, 17220.6719250196 
815, 16616.2945899048 
816, 16057.4587601869 
817, 15618.0752935579 
818, 15345.0499577533 
819, 15257.1703940547 
820, 15237.3453157696 
821, 15187.7919735337 
822, 15066.890542487 
823, 14932.848450403 
824, 14841.7662493142 
825, 14851.763701261 
826, 14951.8011569824 
827, 14925.3148210496 
828, 14765.71613165 
829, 14546.4321123404 
830, 14372.6857776363 
831, 14256.5406149961 
832, 14174.410620599 
833, 14110.1356815298 
834, 14059.3119134486 
835, 14037.2906662892 
836, 14028.2845605907 
837, 14006.4937049084 
838, 13942.4181925806 
839, 13844.5588528354 
840, 13724.3835719739 
841, 13591.4713488521 
842, 13449.6026732927 
843, 13305.0779348535 
844, 13162.6791650677 
845, 13024.5086649626 
846, 12892.1153051209 
847, 12724.8037369036 
848, 12519.493180809 
849, 12290.6573998748 
850, 12060.928416655 
851, 11794.2028860016 
852, 11517.7181113701 
853, 11284.8337071883 
854, 11114.3584279272 
855, 10977.4045690647 
856, 10914.9219961882 
857, 10987.7396432006 
858, 11101.7011936546 
859, 11134.4747277373 
860, 11061.4354240542 
861, 10946.3672352347 
862, 10811.1037116578 
863, 10633.6032136254 
864, 10414.016383427 
865, 10184.8807816778 
866, 9969.53703788557 
867, 9788.24851413863 
868, 9671.04552838711 
869, 9658.77095202517 
870, 9688.52975093762 
871, 9684.39624437608 
872, 9610.87710926471 
873, 9506.23221839911 
874, 9392.81251385268 
875, 9278.32245966484 
876, 9164.198723573 
877, 9050.55957518999 
878, 8940.41539617946 
879, 8833.66203154672 
880, 8727.76561412165 
881, 8616.42780427829 
882, 8507.0830496583 
883, 8403.43290226081 
884, 8305.76227820776 
885, 8209.6597771198 
886, 8105.65194630208 
887, 7994.36107542229 
888, 7881.6546052102 
889, 7773.68820766408 
890, 7667.83642332006 
891, 7549.55039719542 
892, 7401.58459558335 
893, 7221.11113217465 
894, 7009.31100145427 
895, 6772.88166288599 
896, 6522.86453533105 
897, 6271.61791672723 
898, 6033.77424337964 
899, 5835.10536866612 
900, 5700.51453597258 
901, 5622.60818337502 
902, 5588.66150213812 
903, 5576.42226857177 
904, 5560.47156471848 
905, 5531.31382231334 
906, 5473.70983807637 
907, 5375.49340213522 
908, 5235.3118386348 
909, 5087.08133425631 
910, 4961.35382804633 
911, 4869.79983058502 
912, 4806.16641899213 
913, 4753.55145883441 
914, 4702.68247739939 
915, 4651.34898453977 
916, 4603.74964245851 
917, 4569.77036868402 
918, 4545.46364871455 
919, 4524.47479079473 
920, 4500.55513511425 
921, 4473.74902541497 
922, 4437.12636123799 
923, 4380.63694041556 
924, 4295.3371292863 
925, 4186.37117947574 
926, 4056.52228109027 
927, 3900.95908567969 
928, 3711.49414325463 
929, 3490.14664740278 
930, 3238.49697164381 
931, 2970.36987075394 
932, 2708.79042321322 
933, 2477.6754045078 
934, 2292.15564560122 
935, 2165.71738538337 
936, 2103.76824367938 
937, 2088.7161437053 
938, 2104.45012982027 
939, 2131.85635671852 
940, 2155.28892839356 
941, 2175.93637624764 
942, 2183.07799704769 
943, 2166.19364933726 
944, 2122.20878587538 
945, 2066.36261154958 
946, 2018.46005278311 
947, 1989.75440363394 
948, 1980.67014034473 
949, 1976.44720452639 
950, 1973.74155848463 
951, 1970.29086872337 
952, 1964.487051861 
953, 1953.75966668455 
954, 1945.08747238621 
955, 1936.23809714794 
956, 1926.7979352734 
957, 1924.60963161719 
958, 1925.43055565222 
959, 1925.92736086626 
960, 1925.84313496384 
961, 1929.02567859655 
962, 1934.0463836592 
963, 1941.56445320336 
964, 1951.17993262632 
965, 1960.704328749 
966, 1966.4418860244 
967, 1968.86556006419 
968, 1967.66255590323 
969, 1961.46930623785 
970, 1950.79815901259 
971, 1935.76299157859 
972, 1914.98820987631 
973, 1886.74354804818 
974, 1851.34930207239 
975, 1816.7504913769 
976, 1783.63640395858 
977, 1751.14533588915 
978, 1727.43980295543 
979, 1708.26062911449 
980, 1692.26772442839 
981, 1677.9936985782 
982, 1661.56466868558 
983, 1644.35595192954 
984, 1624.77843139492 
985, 1602.89976722768 
986, 1581.99754168146 
987, 1558.1628993372 
988, 1531.41243419023 
989, 1502.98886739345 
990, 1474.43004958009 
991, 1445.83133217753 
992, 1417.49112678925 
993, 1389.3137334844 
994, 1360.90439142888 
995, 1331.73591632308 
996, 1303.8520478535 
997, 1274.99240671668 
998, 1243.2988476748 
999, 1214.15743256557 
1000, 1184.73979935848 
1001, 7545.54076257542 
1002, 7538.99713785294 
1003, 7532.29145486755 
1004, 7535.39591465827 
1005, 7547.19762725712 
1006, 7569.30166536596 
1007, 7596.43405878318 
1008, 7629.12027296394 
1009, 7664.50104813853 
1010, 7703.12912356737 
1011, 7742.65585294539 
1012, 7786.90649752052 
1013, 7830.15887542791 
1014, 7873.16203463973 
1015, 7923.66305404637 
1016, 7977.34681315047 
1017, 8033.06188839374 
1018, 8081.85016331575 
1019, 8122.99517583955 
1020, 8166.44123194349 
1021, 8213.96182090904 
1022, 8265.83149171944 
1023, 8325.73709638039 
1024, 8388.08469680073 
1025, 8440.62890991481 
1026, 8492.78077036424 
1027, 8546.49532114882 
1028, 8593.88364202555 
1029, 8644.02481134215 
1030, 8694.00145885518 
1031, 8735.67491181312 
1032, 8773.60127725371 
1033, 8807.24790767379 
1034, 8838.60890389252 
1035, 8868.49944290658 
1036, 8894.11161377293 
1037, 8919.84042147972 
1038, 8949.27949915058 
1039, 8974.78034302867 
1040, 8996.0941538102 
1041, 9012.86695598334 
1042, 9024.4260790033 
1043, 9032.2966977416 
1044, 9044.03033700913 
1045, 9056.80275655638 
1046, 9066.4750072256 
1047, 9077.94571241717 
1048, 9091.10601731195 
1049, 9095.83804207751 
1050, 9105.9733410215 
1051, 9125.04534723202 
1052, 9135.10317570708 
1053, 9148.22440889818 
1054, 9164.99605255037 
1055, 9178.96914093678 
1056, 9196.8400099371 
1057, 9221.08624279133 
1058, 9250.93424131518 
1059, 9283.61356333392 
1060, 9320.674982768 
1061, 9365.13125203644 
1062, 9412.26797743361 
1063, 9460.12348534198 
1064, 9514.02510264576 
1065, 9580.31419606546 
1066, 9654.12861967713 
1067, 9735.57024637821 
1068, 9826.41055544383 
1069, 9925.49731550564 
1070, 10032.3001869641 
1071, 10148.2239273308 
1072, 10262.8749803914 
1073, 10379.8263793662 
1074, 10504.4664859609 
1075, 10618.5428264363 
1076, 10730.8689921807 
1077, 10843.7296227513 
1078, 10935.9254858462 
1079, 11018.8930009437 
1080, 11086.9288975722 
1081, 11145.5433084215 
1082, 11210.3772687698 
1083, 11266.5481987593 
1084, 11321.276691498 
1085, 11378.7284342904 
1086, 11429.4607531741 
1087, 11476.2770622494 
1088, 11515.7545356263 
1089, 11557.3836791223 
1090, 11578.999473308 
1091, 11586.3152542557 
1092, 11588.8203889095 
1093, 11572.7707775754 
1094, 11552.4177327516 
1095, 11533.5143053928 
1096, 11506.4577401891 
1097, 11477.325846719 
1098, 11447.1380183329 
1099, 11416.5014426519 
1100, 11381.1991235038 
1101, 11347.2198571921 
1102, 11321.0937213434 
1103, 11280.6107269366 
1104, 11239.8012933468 
1105, 11183.9655236575 
1106, 11119.921772381 
1107, 11027.9310968678 
1108, 10896.8707159444 
1109, 10722.8533759637 
1110, 10472.1885434574 
1111, 10165.7057880558 
1112, 9807.67560976207 
1113, 9365.81535261781 
1114, 8932.54285916756 
1115, 8430.87117372768 
1116, 7977.22846168836 
1117, 7489.54141894152 
1118, 7072.89570880713 
1119, 6685.60688440449 
1120, 6332.52441838765 
1121, 6043.59756797998 
1122, 5812.46636931611 
1123, 5649.86338847926 
1124, 5545.25538035615 
1125, 5496.23190320578 
1126, 5530.91776914006 
1127, 5565.09385364907 
1128, 5650.95814911373 
1129, 5740.10444505824 
1130, 5861.90211645896 
1131, 5977.28382012777 
1132, 6094.26655627079 
1133, 6239.10592575115 
1134, 6391.45677636014 
1135, 6556.21536167789 
1136, 6794.50408138148 
1137, 7035.33975304012 
1138, 7263.09483937347 
1139, 7483.46471066673 
1140, 7629.70007247002 
1141, 7734.93049625433 
1142, 7785.19003548646 
1143, 7752.59502797964 
1144, 7742.14923013131 
1145, 7630.25223434452 
1146, 7637.08260691792 
1147, 7656.43740849941 
1148, 7758.11133457477 
1149, 7941.69750687984 
1150, 8166.24609084517 
1151, 8456.88162600958 
1152, 8777.23506784292 
1153, 9113.40291529344 
1154, 9500.58283643226 
1155, 9871.07130806772 
1156, 10263.6482494589 
1157, 10635.2526720974 
1158, 11016.0740278877 
1159, 11370.8283309054 
1160, 11718.8020998348 
1161, 12038.7978955225 
1162, 12346.5528700386 
1163, 12624.8883250972 
1164, 12878.2984719183 
1165, 13105.5242894561 
1166, 13307.6658587222 
1167, 13475.6971100104 
1168, 13623.4958663176 
1169, 13741.5007313273 
1170, 13842.9924299562 
1171, 13923.9132387479 
1172, 13980.1246122373 
1173, 14005.6884890628 
1174, 14027.4934439765 
1175, 14024.9685941436 
1176, 14019.8494116056 
1177, 14003.4789863143 
