Wavelength,0212202100015.asd
350, 4006.79402241283 
351, 4210.30927033725 
352, 4396.70004868709 
353, 4559.73116040515 
354, 4725.66510091714 
355, 4899.18207077648 
356, 5077.87904609561 
357, 5257.76402065905 
358, 5444.01690379832 
359, 5644.97989977519 
360, 5872.33412110062 
361, 6145.97170010779 
362, 6452.81269288196 
363, 6779.14387756088 
364, 7113.70001655526 
365, 7451.97046172935 
366, 7773.4668231396 
367, 8052.64544414867 
368, 8260.87127671995 
369, 8382.93037473372 
370, 8429.02151361347 
371, 8425.19486469721 
372, 8405.26409502444 
373, 8405.79991086616 
374, 8430.12805555494 
375, 8458.2313254234 
376, 8490.00013115934 
377, 8508.11961992814 
378, 8489.73138819725 
379, 8408.20268540373 
380, 8311.59041900089 
381, 8204.69910852298 
382, 8081.88815998269 
383, 7937.46764909953 
384, 7796.1277417488 
385, 7710.48608116147 
386, 7740.32692520863 
387, 7912.16708907419 
388, 8128.91741778741 
389, 8309.12795540682 
390, 8407.80298431859 
391, 8519.7840015259 
392, 8616.56191649422 
393, 8683.2143069277 
394, 8777.05369086699 
395, 8997.27820453387 
396, 9394.07964252794 
397, 9986.04711520697 
398, 10780.9062633847 
399, 11678.4948153005 
400, 12600.1015087103 
401, 13493.2409846185 
402, 14322.6434928501 
403, 15007.7725501272 
404, 15518.8927390573 
405, 15923.2474475125 
406, 16246.6325594127 
407, 16542.8262839404 
408, 16875.6195148943 
409, 17314.5865516486 
410, 17830.672011383 
411, 18395.4511841255 
412, 18983.0932895074 
413, 19569.1997627466 
414, 20145.727941434 
415, 20696.3607325472 
416, 21182.6742063201 
417, 21659.0475659544 
418, 22146.5403928126 
419, 22640.0767363707 
420, 23075.9505484511 
421, 23524.6624026983 
422, 24013.1649919716 
423, 24524.8237768042 
424, 24990.619045416 
425, 25359.2090684509 
426, 25576.7652054047 
427, 25571.1587820475 
428, 25495.7555253741 
429, 25565.334957162 
430, 25928.0093926011 
431, 26412.0518305118 
432, 27071.1726009199 
433, 28036.467863407 
434, 29432.5330420117 
435, 30836.3682822223 
436, 31909.1554370137 
437, 32610.7519689719 
438, 33358.7417797321 
439, 34114.1221434316 
440, 34833.3655466689 
441, 35509.9625239103 
442, 36353.9761142273 
443, 37221.6244573226 
444, 38013.4755984269 
445, 38679.6985198566 
446, 39213.7054678233 
447, 39704.5796923216 
448, 40236.5622014042 
449, 40872.4025376622 
450, 41377.7797115237 
451, 41635.2140461067 
452, 41624.5386886809 
453, 41522.9148891611 
454, 41304.3517736259 
455, 41034.2014191095 
456, 40858.4950161217 
457, 40822.5937199427 
458, 40841.7944128089 
459, 40825.7034368734 
460, 40728.3697735727 
461, 40580.6394350403 
462, 40417.5810842779 
463, 40252.5637700505 
464, 39980.432074131 
465, 39568.0746274022 
466, 39072.3199758979 
467, 38632.4405833773 
468, 38255.0956324839 
469, 37979.3989467174 
470, 37826.5168745816 
471, 37780.1752339482 
472, 37754.8088611703 
473, 37760.6931186153 
474, 37832.2029456549 
475, 37825.340403163 
476, 37798.303404372 
477, 37797.3949802439 
478, 37830.2762062761 
479, 37971.30357081 
480, 38152.9843752605 
481, 38266.0701169858 
482, 38222.5542174369 
483, 37910.1180983261 
484, 37278.6930293958 
485, 36371.4446092636 
486, 35537.4188076615 
487, 34977.9410771006 
488, 34853.7159733514 
489, 35320.6211959693 
490, 35974.7056845152 
491, 36486.6001153379 
492, 36670.2265575311 
493, 36745.4157370045 
494, 36867.0389339872 
495, 37094.3042125173 
496, 37382.9569477824 
497, 37462.6628164714 
498, 37348.4614630211 
499, 37111.0520359963 
500, 36799.2123121391 
501, 36582.5117682026 
502, 36518.0417040161 
503, 36622.0332765135 
504, 37004.9081627093 
505, 37502.486470482 
506, 37980.5955556783 
507, 38362.8253016284 
508, 38651.4202314827 
509, 38882.2155252184 
510, 39105.9787676336 
511, 39401.6127930346 
512, 39595.571165904 
513, 39621.0139526104 
514, 39474.7385811727 
515, 39131.7084009557 
516, 38679.5297444067 
517, 38258.241087033 
518, 38048.7468931608 
519, 38443.3709343416 
520, 39438.063230535 
521, 40770.6311328535 
522, 41845.8424306035 
523, 42646.1443777286 
524, 43212.9782870947 
525, 43622.553525978 
526, 43783.9105887294 
527, 43859.7112585513 
528, 44132.0633711426 
529, 45084.7055541164 
530, 46271.2550689025 
531, 47223.5571592517 
532, 47589.4522447242 
533, 47714.9829214558 
534, 47954.7957899681 
535, 48475.9507552897 
536, 49222.5010152615 
537, 49734.8889343098 
538, 49953.8461728539 
539, 49971.1849628885 
540, 49959.2190669354 
541, 50019.8066669303 
542, 50307.5508898168 
543, 50943.1110701801 
544, 51629.8962913765 
545, 52211.8439006 
546, 52611.5462928304 
547, 52835.8394159631 
548, 52988.4159156339 
549, 53178.2224895468 
550, 53467.720407946 
551, 53755.6823119631 
552, 53974.3100436843 
553, 54136.3728323929 
554, 54314.8776699189 
555, 54451.6646776074 
556, 54396.9790018469 
557, 54074.5371079024 
558, 53561.6015480952 
559, 53146.3004474023 
560, 52988.0615234215 
561, 53129.3761395168 
562, 53398.0028656454 
563, 53541.6004257437 
564, 53449.5069970153 
565, 53186.8836951106 
566, 52814.9271634761 
567, 52451.8861885328 
568, 52166.6108379475 
569, 51857.443025291 
570, 51434.3157930727 
571, 51037.1203073372 
572, 50926.5770798589 
573, 51032.1329405512 
574, 51046.7006866322 
575, 50790.6110383869 
576, 50334.1812346034 
577, 49944.4016393065 
578, 49755.2802449808 
579, 49819.5991104835 
580, 50096.369254137 
581, 50578.3748677143 
582, 51152.5066156064 
583, 51612.2135587046 
584, 51891.8491900909 
585, 51859.2581855217 
586, 51505.6113548467 
587, 51115.0071533066 
588, 50644.5375829812 
589, 49978.9952792745 
590, 49108.5698622987 
591, 48937.1689011975 
592, 49276.5050084536 
593, 49696.1236253258 
594, 49609.6360557096 
595, 49320.2506711369 
596, 48955.0548728403 
597, 48574.9431444667 
598, 48140.5195960013 
599, 47609.6246651966 
600, 47039.903233908 
601, 46555.1553952264 
602, 46175.6838408602 
603, 45986.8658731958 
604, 45988.5265585909 
605, 46040.4058040795 
606, 45918.1631091001 
607, 45639.0476387778 
608, 45314.8349150857 
609, 44986.4981235729 
610, 44676.8315419703 
611, 44406.1011215383 
612, 44187.9670976917 
613, 43941.3300412928 
614, 43645.6302588053 
615, 43327.7894079769 
616, 43086.0780423727 
617, 42931.3960692563 
618, 42946.3575293312 
619, 43186.2982408147 
620, 43384.2949083304 
621, 43387.6736223491 
622, 43157.2527927779 
623, 42778.9657404082 
624, 42367.2950409225 
625, 41988.4843302467 
626, 41673.0546910566 
627, 41411.7782843737 
628, 41129.1547389124 
629, 40845.930924998 
630, 40655.2796729913 
631, 40684.4353013146 
632, 40832.9634327868 
633, 41010.0207252383 
634, 41198.5052448902 
635, 41336.1786403875 
636, 41426.9094081903 
637, 41491.3052401801 
638, 41519.1956385478 
639, 41449.6696135922 
640, 41245.7777843227 
641, 40911.9876429507 
642, 40679.8290426458 
643, 40560.655143086 
644, 40486.5366031753 
645, 40321.4276340636 
646, 40067.9321118862 
647, 39762.4823033547 
648, 39462.3396673004 
649, 39205.2353524593 
650, 38990.0340640275 
651, 38873.3707910949 
652, 38952.8878887 
653, 38856.7517929614 
654, 38396.8871851857 
655, 37552.2582744991 
656, 36507.6420697049 
657, 35798.5965941523 
658, 35902.3464469135 
659, 36995.8996079844 
660, 37879.1014711174 
661, 38330.0585212654 
662, 38421.957683581 
663, 38462.9220722768 
664, 38409.0795181541 
665, 38343.1442320985 
666, 38331.1584279179 
667, 38335.9257741366 
668, 38316.4790084439 
669, 38280.1172926221 
670, 38252.4669375791 
671, 38163.9591383917 
672, 38063.8316383537 
673, 38009.4547002597 
674, 38050.558209094 
675, 38099.3094255219 
676, 38130.233669767 
677, 38143.7651761935 
678, 38164.7763644503 
679, 38171.9507251542 
680, 38162.8185385802 
681, 38145.0226109772 
682, 38120.1380584033 
683, 38034.2442489998 
684, 37718.8954166156 
685, 36861.7883915325 
686, 35322.8183399925 
687, 33196.0146799372 
688, 31021.7210463983 
689, 30397.7654223683 
690, 31227.6115497927 
691, 32838.248336198 
692, 34245.8052257502 
693, 35471.3744194785 
694, 36349.5978004835 
695, 36862.3654215761 
696, 37201.4281148386 
697, 37480.1253444922 
698, 37650.6002545735 
699, 37653.1117834305 
700, 37569.6375603721 
701, 37486.9445600918 
702, 37485.321298486 
703, 37628.7694950214 
704, 37931.8195700107 
705, 38274.8532756074 
706, 38549.8318552817 
707, 38691.606343801 
708, 38814.9525944551 
709, 38931.33065625 
710, 39030.976640655 
711, 39137.2813414567 
712, 39204.5147996574 
713, 39223.1387128726 
714, 39191.9140446088 
715, 39033.8847415066 
716, 38592.6182959063 
717, 37794.6584948059 
718, 36685.3975993003 
719, 35772.2394160348 
720, 35480.0403931162 
721, 35963.448257457 
722, 36867.4095726621 
723, 37433.2695693744 
724, 37473.6706921294 
725, 37213.4928890287 
726, 37208.3552227554 
727, 37333.5888757934 
728, 37456.9930663887 
729, 37520.4364389238 
730, 37747.2454519613 
731, 38167.5100211888 
732, 38728.6584483444 
733, 39315.4563637036 
734, 39804.4653857768 
735, 40096.6076509236 
736, 40152.6596354528 
737, 40096.2265020543 
738, 40017.3452501251 
739, 39934.5739903171 
740, 39814.373694879 
741, 39766.5092484695 
742, 39808.8049255553 
743, 39926.2354154148 
744, 40082.9810522938 
745, 40180.4693771318 
746, 40215.0021427702 
747, 40207.9848123437 
748, 40144.2680027833 
749, 40001.0487913855 
750, 39811.1580064383 
751, 39645.0105574797 
752, 39565.7895671509 
753, 39544.8303058894 
754, 39536.4693893945 
755, 39487.0502301183 
756, 39291.2026615798 
757, 38468.1113671834 
758, 36210.35818195 
759, 31064.0829055688 
760, 23651.1311175712 
761, 16663.7362734739 
762, 13165.2626908663 
763, 13509.1588172325 
764, 15773.7201522314 
765, 19080.8652333302 
766, 23456.2627775442 
767, 28091.7431722834 
768, 32007.6012194031 
769, 34645.2634578903 
770, 36071.3485000666 
771, 36746.4000904954 
772, 36989.6855519627 
773, 37031.2254412356 
774, 36988.5926976307 
775, 36882.8567986416 
776, 36753.5225200696 
777, 36628.0732011091 
778, 36461.3882109748 
779, 36267.9775454865 
780, 36078.139548081 
781, 35924.5074481118 
782, 35754.0413057978 
783, 35552.7067121972 
784, 35328.017140036 
785, 35109.4466297716 
786, 34899.3347968022 
787, 34656.1634717491 
788, 34347.6302576255 
789, 33998.1851886199 
790, 33621.9578120239 
791, 33225.5676723387 
792, 32817.5531230328 
793, 32423.4674609962 
794, 32109.1414581403 
795, 31909.7662370621 
796, 31820.2794128533 
797, 31754.8241358366 
798, 31624.8331748176 
799, 31394.6362775862 
800, 31097.0193806855 
801, 30782.2806738672 
802, 30490.9743065797 
803, 30236.1040627533 
804, 29980.6698381448 
805, 29754.7409500887 
806, 29543.8971207235 
807, 29314.8348190306 
808, 29029.111117181 
809, 28692.0206728222 
810, 28329.3252741373 
811, 27961.1510299231 
812, 27517.1015013978 
813, 26931.8484341698 
814, 26196.8233785148 
815, 25368.789835326 
816, 24592.6570305188 
817, 23972.8282346015 
818, 23575.5976580847 
819, 23423.6868678725 
820, 23352.9570816852 
821, 23248.7999986951 
822, 23066.4836737576 
823, 22869.0093484714 
824, 22743.1485231342 
825, 22753.3125025513 
826, 22866.0420764714 
827, 22783.78747213 
828, 22529.9550263452 
829, 22207.82141721 
830, 21947.4499601272 
831, 21761.3378287469 
832, 21611.7933019616 
833, 21482.6252646642 
834, 21380.8447747009 
835, 21321.4121349041 
836, 21280.1689165442 
837, 21219.9394333284 
838, 21099.1681249655 
839, 20929.08880045 
840, 20729.6279487171 
841, 20515.6114021225 
842, 20288.4100945604 
843, 20055.468511512 
844, 19825.9599499929 
845, 19603.8571204074 
846, 19386.324383874 
847, 19116.283178213 
848, 18794.5297579206 
849, 18443.33757141 
850, 18079.4825810145 
851, 17660.2282383891 
852, 17234.0457630831 
853, 16882.0096800555 
854, 16613.9143833087 
855, 16399.5053962963 
856, 16302.5738599106 
857, 16406.8603177361 
858, 16555.6841895584 
859, 16575.9780337948 
860, 16441.2655783792 
861, 16252.7587779269 
862, 16026.8513290118 
863, 15739.7480792141 
864, 15397.5353886601 
865, 15046.713446904 
866, 14715.0757606599 
867, 14437.4566427913 
868, 14258.5043080647 
869, 14229.7290113859 
870, 14254.056315963 
871, 14226.4186586253 
872, 14099.5815445262 
873, 13926.9098267435 
874, 13741.9478355352 
875, 13556.7825595588 
876, 13374.7685118804 
877, 13198.5840423919 
878, 13024.4571875547 
879, 12852.9694152809 
880, 12683.6262807953 
881, 12508.8440655543 
882, 12337.101583871 
883, 12175.5498125515 
884, 12025.3025575989 
885, 11872.2078656985 
886, 11709.5425485996 
887, 11539.4862992347 
888, 11369.312078089 
889, 11207.7807969389 
890, 11047.8091762607 
891, 10870.8917998841 
892, 10657.4266414333 
893, 10407.0817123547 
894, 10116.7000871424 
895, 9796.51125925305 
896, 9463.5872255725 
897, 9124.61679146727 
898, 8804.93146395553 
899, 8535.39064855472 
900, 8342.43612228988 
901, 8225.20764827587 
902, 8162.85168835226 
903, 8128.55812227807 
904, 8094.46231475511 
905, 8043.36355792608 
906, 7956.59697139517 
907, 7817.78390508275 
908, 7624.18167749671 
909, 7425.07392537386 
910, 7256.15914950758 
911, 7130.49452933589 
912, 7040.074973469 
913, 6963.87311130359 
914, 6889.22806694906 
915, 6812.90477234536 
916, 6740.38726157932 
917, 6685.52597853078 
918, 6638.47818616082 
919, 6592.76204854884 
920, 6546.09012906276 
921, 6496.96567202811 
922, 6432.40357838182 
923, 6342.21058549923 
924, 6221.08425867182 
925, 6072.21133286027 
926, 5894.32102981517 
927, 5680.79417766902 
928, 5423.53770880554 
929, 5123.88330375904 
930, 4786.78419362757 
931, 4428.95256304111 
932, 4077.15980742057 
933, 3764.00027620195 
934, 3515.32464712077 
935, 3345.29518269297 
936, 3254.34228919097 
937, 3225.681104203 
938, 3238.57832684453 
939, 3268.66012737245 
940, 3295.19494383377 
941, 3315.72199576754 
942, 3317.68109052438 
943, 3286.39271689226 
944, 3217.47763273904 
945, 3135.88554545749 
946, 3068.31765514862 
947, 3025.98437197426 
948, 3006.51124201503 
949, 2994.74679788781 
950, 2985.26508108414 
951, 2971.83974694373 
952, 2952.20356432763 
953, 2931.86358747518 
954, 2911.76147909166 
955, 2892.80388068377 
956, 2876.60831382528 
957, 2866.22451269406 
958, 2854.19984779379 
959, 2844.95239796907 
960, 2840.692859138 
961, 2836.18043474133 
962, 2832.26746117079 
963, 2830.16647602486 
964, 2830.00974780438 
965, 2830.03077645782 
966, 2824.71322070597 
967, 2813.70157298809 
968, 2796.99524819393 
969, 2774.69668094069 
970, 2750.38679538146 
971, 2720.86012157644 
972, 2682.04812314147 
973, 2632.27961184588 
974, 2579.6001505752 
975, 2525.4035632869 
976, 2471.7605142402 
977, 2421.79999961544 
978, 2381.01705488947 
979, 2345.45933312047 
980, 2313.87588796852 
981, 2284.38451195453 
982, 2251.72854678941 
983, 2218.46086341992 
984, 2184.47728464839 
985, 2148.83461530343 
986, 2110.44284433874 
987, 2069.77078175357 
988, 2027.36926456061 
989, 1984.31838501385 
990, 1941.82368952983 
991, 1898.51859161033 
992, 1855.4473238757 
993, 1812.60797827759 
994, 1769.48168521327 
995, 1727.63433963666 
996, 1686.38319245603 
997, 1644.69811594991 
998, 1602.16279140907 
999, 1560.37577745762 
1000, 1517.70363525715 
1001, 9451.5166112307 
1002, 9418.63106060953 
1003, 9387.02496105992 
1004, 9363.23474823139 
1005, 9345.59717054329 
1006, 9336.23465380107 
1007, 9340.38558530145 
1008, 9357.53279813149 
1009, 9381.09452956965 
1010, 9421.86678891212 
1011, 9455.0081825009 
1012, 9490.09024196923 
1013, 9531.19994589464 
1014, 9567.93660737633 
1015, 9599.61069716352 
1016, 9643.87068023914 
1017, 9684.06545973859 
1018, 9722.39147485289 
1019, 9773.05500022823 
1020, 9820.3842892386 
1021, 9871.20768122187 
1022, 9925.36805029435 
1023, 9984.03549063168 
1024, 10039.5865004689 
1025, 10103.2906440621 
1026, 10165.7479029909 
1027, 10220.9077147164 
1028, 10275.7251189232 
1029, 10324.8438030173 
1030, 10369.2147794342 
1031, 10416.3151774256 
1032, 10467.0467393053 
1033, 10516.8822326429 
1034, 10562.5779505243 
1035, 10605.3392094754 
1036, 10644.6311593133 
1037, 10683.0869166598 
1038, 10717.5348428319 
1039, 10752.1372823051 
1040, 10787.6160660343 
1041, 10813.2554069942 
1042, 10839.0657713256 
1043, 10864.0512274926 
1044, 10887.0518190556 
1045, 10917.3060564374 
1046, 10945.4888341763 
1047, 10974.4778707549 
1048, 11003.1534168468 
1049, 11037.8939886805 
1050, 11072.6122673483 
1051, 11113.6014046992 
1052, 11156.0174865892 
1053, 11189.544525484 
1054, 11226.6459057847 
1055, 11266.9427294509 
1056, 11308.7007482305 
1057, 11361.916148567 
1058, 11419.5406323594 
1059, 11477.8164519391 
1060, 11547.6462494395 
1061, 11626.0512432336 
1062, 11713.5768091161 
1063, 11810.7696858963 
1064, 11915.1487688982 
1065, 12023.2581812643 
1066, 12138.7045894994 
1067, 12256.3566011025 
1068, 12382.9074511504 
1069, 12526.318559818 
1070, 12679.5030740489 
1071, 12846.2965484344 
1072, 13009.6727773669 
1073, 13174.6346639737 
1074, 13353.2023805989 
1075, 13511.6340976644 
1076, 13661.2003925089 
1077, 13810.7911099217 
1078, 13947.0609184441 
1079, 14064.2205092474 
1080, 14171.9107132257 
1081, 14269.6628893569 
1082, 14357.3692500346 
1083, 14437.1382051676 
1084, 14515.9902791571 
1085, 14595.3722456463 
1086, 14665.1950614377 
1087, 14732.939312032 
1088, 14785.5983351043 
1089, 14833.7247261638 
1090, 14861.7481972749 
1091, 14874.1334185772 
1092, 14875.0969241955 
1093, 14857.8795071211 
1094, 14834.1766024926 
1095, 14802.3159004279 
1096, 14764.8339485132 
1097, 14730.6137255626 
1098, 14693.3588109689 
1099, 14665.1610803249 
1100, 14646.8734243367 
1101, 14620.6656396447 
1102, 14608.8050972609 
1103, 14571.1342363827 
1104, 14529.7521491373 
1105, 14463.2850460142 
1106, 14380.5958894188 
1107, 14260.8459261117 
1108, 14097.7555494646 
1109, 13890.4679598128 
1110, 13592.0510344571 
1111, 13227.9953254443 
1112, 12797.0919252029 
1113, 12258.6937747567 
1114, 11733.0386498932 
1115, 11124.5688333743 
1116, 10575.182077042 
1117, 9985.97552096373 
1118, 9483.95339180003 
1119, 9019.76572794545 
1120, 8591.90230524109 
1121, 8246.41641808639 
1122, 7969.47908286032 
1123, 7779.45166228562 
1124, 7661.25167555891 
1125, 7606.81906697932 
1126, 7654.18433939416 
1127, 7698.25176420199 
1128, 7805.36388403242 
1129, 7908.44556093223 
1130, 8044.65890950069 
1131, 8176.14100586702 
1132, 8304.6897897667 
1133, 8465.86690210723 
1134, 8634.56675245844 
1135, 8823.68631519759 
1136, 9095.5745552817 
1137, 9378.72589937464 
1138, 9661.62502526693 
1139, 9922.11863710144 
1140, 10093.969178423 
1141, 10215.8577076813 
1142, 10270.9178047606 
1143, 10225.3774423874 
1144, 10203.4592609497 
1145, 10061.5625829207 
1146, 10053.4542852709 
1147, 10052.4224001067 
1148, 10148.4102201937 
1149, 10336.2823442859 
1150, 10576.5915435174 
1151, 10891.126792621 
1152, 11237.7440123571 
1153, 11597.0330006581 
1154, 12014.1587885019 
1155, 12402.9156869082 
1156, 12813.0328099543 
1157, 13188.9464598522 
1158, 13565.3515032507 
1159, 13910.0407270243 
1160, 14235.4208783691 
1161, 14533.8529728985 
1162, 14821.7192326171 
1163, 15066.8521790704 
1164, 15279.1516970939 
1165, 15458.3067864534 
1166, 15603.4817732018 
1167, 15721.8511182364 
1168, 15815.649082613 
1169, 15884.1858130531 
1170, 15923.8567138781 
1171, 15933.7968173937 
1172, 15921.3896830664 
1173, 15872.1000505843 
1174, 15820.7061933547 
1175, 15746.4747164358 
1176, 15668.1236278632 
1177, 15570.8719123323 
