Wavelength,0212202100130.asd
350, 2799.08456164987 
351, 2944.20768841519 
352, 3076.87583756788 
353, 3188.74189015837 
354, 3298.92187476255 
355, 3415.98465729039 
356, 3540.64099363966 
357, 3659.9795258961 
358, 3784.99095904383 
359, 3919.86214882893 
360, 4068.29549268002 
361, 4250.0281226337 
362, 4456.75035815868 
363, 4678.97726382741 
364, 4908.51549670357 
365, 5141.97490340451 
366, 5364.95420977522 
367, 5560.04685724324 
368, 5708.83697639712 
369, 5796.78362087139 
370, 5827.79169302126 
371, 5818.41790754001 
372, 5794.6656007968 
373, 5785.62495666405 
374, 5795.78479656106 
375, 5811.35687083429 
376, 5825.29858899519 
377, 5832.96286272925 
378, 5821.90478981092 
379, 5769.42281459575 
380, 5702.00115196788 
381, 5625.55668169126 
382, 5538.64019048216 
383, 5431.97831466426 
384, 5323.67836901972 
385, 5248.4580182117 
386, 5247.80888624337 
387, 5355.54192892321 
388, 5510.65461364677 
389, 5646.11445308196 
390, 5705.44853105909 
391, 5770.46667508154 
392, 5836.22033653875 
393, 5890.12072326096 
394, 5931.41838173005 
395, 6053.45676204427 
396, 6295.85650014298 
397, 6671.97273612188 
398, 7199.91230895213 
399, 7801.08697322373 
400, 8418.56752066494 
401, 9020.93733399812 
402, 9593.01888346741 
403, 10065.2205201278 
404, 10407.2478030809 
405, 10670.7255957487 
406, 10879.936110504 
407, 11066.1931948694 
408, 11268.1012729412 
409, 11548.6892068996 
410, 11884.145404491 
411, 12253.7974428706 
412, 12640.8162598598 
413, 13023.8690462092 
414, 13401.9966584846 
415, 13766.346812194 
416, 14087.3266784751 
417, 14391.5610439439 
418, 14701.8893230313 
419, 15024.8101679052 
420, 15307.210139492 
421, 15593.1567593265 
422, 15905.2528929416 
423, 16241.4464093855 
424, 16550.810617518 
425, 16795.3452766003 
426, 16941.133916505 
427, 16952.9801334241 
428, 16887.8774314255 
429, 16899.7044431187 
430, 17112.1537831824 
431, 17417.233058109 
432, 17819.5562431739 
433, 18412.6018906019 
434, 19314.4075882719 
435, 20272.2411939903 
436, 21005.674958697 
437, 21456.8859377072 
438, 21933.4780679442 
439, 22424.4272157565 
440, 22886.9429640509 
441, 23303.4846853349 
442, 23846.0201456086 
443, 24418.0863113016 
444, 24942.8038145723 
445, 25371.373558234 
446, 25716.3728833253 
447, 26025.2583987193 
448, 26351.7460604242 
449, 26759.1585839574 
450, 27106.7748788245 
451, 27294.9313556273 
452, 27284.1069777177 
453, 27213.7217561588 
454, 27061.1698738114 
455, 26867.4508480512 
456, 26731.6355769635 
457, 26701.693637347 
458, 26711.6528233404 
459, 26693.1038134998 
460, 26621.037877626 
461, 26515.7323489799 
462, 26402.0682445195 
463, 26291.3483983859 
464, 26118.18122681 
465, 25850.7900921441 
466, 25520.5951516035 
467, 25218.9383668238 
468, 24962.5540321222 
469, 24770.0619763747 
470, 24651.1311838496 
471, 24609.0009445247 
472, 24580.7567121394 
473, 24573.1014987551 
474, 24611.4939146401 
475, 24604.0589843667 
476, 24577.7695120586 
477, 24562.0528190621 
478, 24574.8978519362 
479, 24655.6211069918 
480, 24768.4395464908 
481, 24849.0662527791 
482, 24829.336987582 
483, 24646.3012874939 
484, 24260.4401857489 
485, 23681.3946436702 
486, 23117.4981875463 
487, 22717.3270974658 
488, 22599.6147096644 
489, 22865.1901052024 
490, 23285.4190618915 
491, 23632.639737541 
492, 23760.2558812372 
493, 23807.3879585753 
494, 23873.7797327466 
495, 24006.152284288 
496, 24190.3242016837 
497, 24249.6370134971 
498, 24184.0289547899 
499, 24032.4483755254 
500, 23830.1469153074 
501, 23674.1510943913 
502, 23609.0696547552 
503, 23657.6696014619 
504, 23876.5842642354 
505, 24183.5018879153 
506, 24496.2944902978 
507, 24747.2592406774 
508, 24937.7967944927 
509, 25086.3569612605 
510, 25224.9576603936 
511, 25414.6415455115 
512, 25547.9402346507 
513, 25574.9454275595 
514, 25483.3627682672 
515, 25276.6639142279 
516, 24994.2914064733 
517, 24714.2121504279 
518, 24553.4014454319 
519, 24762.879991836 
520, 25362.2519651087 
521, 26205.6130083288 
522, 26909.576598107 
523, 27435.7782610494 
524, 27805.56622757 
525, 28080.0774930146 
526, 28201.0331159562 
527, 28247.9938999345 
528, 28391.1487666267 
529, 28962.7169008765 
530, 29704.8578180496 
531, 30329.229545498 
532, 30603.0252539428 
533, 30695.6249548368 
534, 30834.9269908637 
535, 31143.9763596621 
536, 31614.5540030266 
537, 31953.7072052524 
538, 32110.6283380652 
539, 32130.3133301363 
540, 32118.9350697162 
541, 32145.9300638647 
542, 32308.7881044134 
543, 32684.3144344915 
544, 33115.3367922972 
545, 33493.025466463 
546, 33757.7176094712 
547, 33910.5483939947 
548, 34010.2782703924 
549, 34126.801309881 
550, 34304.6931688499 
551, 34488.6340760612 
552, 34629.8787234459 
553, 34732.5149689217 
554, 34841.3461879392 
555, 34925.2911540582 
556, 34896.9208430131 
557, 34707.1021169137 
558, 34387.1973587531 
559, 34110.6847847534 
560, 33984.0689555353 
561, 34047.8697349143 
562, 34203.5896659969 
563, 34293.6793028092 
564, 34241.2439001898 
565, 34071.6068646094 
566, 33834.6620739531 
567, 33592.9320199183 
568, 33384.143957206 
569, 33174.5635939593 
570, 32901.1944062377 
571, 32640.8519906204 
572, 32545.0848806333 
573, 32575.6932153543 
574, 32567.39122318 
575, 32416.9067150729 
576, 32145.0243177446 
577, 31894.2018638455 
578, 31762.1309340935 
579, 31802.7496888281 
580, 31972.7727546575 
581, 32267.3522758152 
582, 32624.7326949486 
583, 32930.9281879862 
584, 33123.2842863288 
585, 33121.1340353197 
586, 32915.1164759973 
587, 32652.8723198957 
588, 32323.0874942153 
589, 31875.8386028514 
590, 31316.4283073836 
591, 31117.813183955 
592, 31263.4989178371 
593, 31533.3272418724 
594, 31520.6193371506 
595, 31363.4580877387 
596, 31141.7059026397 
597, 30910.06846906 
598, 30656.5716056881 
599, 30343.0957146713 
600, 29998.6284319595 
601, 29698.1837406064 
602, 29464.2815411924 
603, 29337.8727067133 
604, 29318.5464705133 
605, 29344.7264862755 
606, 29278.1020408036 
607, 29113.2893022089 
608, 28903.7374018062 
609, 28694.782421838 
610, 28495.7756177697 
611, 28316.7332528361 
612, 28167.2861301801 
613, 28010.5026539403 
614, 27826.3467827635 
615, 27623.3151556741 
616, 27461.6829478412 
617, 27360.4591471633 
618, 27358.0952324151 
619, 27473.9508814736 
620, 27595.2051547445 
621, 27606.8620853567 
622, 27469.5253466153 
623, 27236.4868894037 
624, 26971.1712995787 
625, 26719.3708102351 
626, 26504.5195314708 
627, 26310.7797708398 
628, 26115.9504819209 
629, 25929.8766149146 
630, 25792.0368622945 
631, 25799.2622124201 
632, 25889.8370764265 
633, 26004.6764905181 
634, 26128.9107805501 
635, 26222.8176635234 
636, 26285.4988363178 
637, 26326.8021559816 
638, 26339.518599269 
639, 26298.6785936947 
640, 26181.9099889097 
641, 25981.1725104104 
642, 25825.7792067751 
643, 25732.2429162536 
644, 25669.8216320877 
645, 25561.7278645983 
646, 25389.530318323 
647, 25173.1131241182 
648, 24955.3116246632 
649, 24776.5834815001 
650, 24640.0920818218 
651, 24568.8024727667 
652, 24598.3734925204 
653, 24540.7647993744 
654, 24267.362594639 
655, 23755.6685431523 
656, 23154.6890644399 
657, 22720.6630168561 
658, 22722.9487211476 
659, 23297.9353233276 
660, 23888.9576897709 
661, 24228.5414516182 
662, 24295.686323559 
663, 24326.2221198894 
664, 24299.2606569434 
665, 24257.305263202 
666, 24237.3333747984 
667, 24240.6217662543 
668, 24228.5822225576 
669, 24200.5495942991 
670, 24173.5835466553 
671, 24119.4000890893 
672, 24056.7302438046 
673, 24015.0139671883 
674, 24030.5159854062 
675, 24056.2590713348 
676, 24073.0148986712 
677, 24076.166976957 
678, 24082.2838448226 
679, 24081.8370455281 
680, 24073.9551227295 
681, 24061.2136822543 
682, 24036.7686854092 
683, 23975.0254536591 
684, 23771.8364181379 
685, 23219.9479040966 
686, 22246.4463946389 
687, 20941.4248542381 
688, 19622.9062192569 
689, 19071.1936943598 
690, 19463.8864226312 
691, 20439.3185137654 
692, 21316.140230117 
693, 22076.551728846 
694, 22622.1923602136 
695, 22948.5487904088 
696, 23176.0170148359 
697, 23375.8773773196 
698, 23510.5511788345 
699, 23529.949707751 
700, 23461.8360109224 
701, 23395.2601359561 
702, 23390.5576438525 
703, 23480.6451205354 
704, 23670.3309762414 
705, 23892.5283672652 
706, 24081.0088714492 
707, 24185.4288675593 
708, 24271.5824475367 
709, 24347.8217251023 
710, 24410.9433970761 
711, 24475.3247492858 
712, 24515.4444775489 
713, 24519.9407399463 
714, 24477.1518801672 
715, 24330.945735412 
716, 23975.7077466644 
717, 23366.0352809121 
718, 22540.9743988125 
719, 21855.5893244148 
720, 21600.1069286231 
721, 21884.1090372745 
722, 22485.6017869222 
723, 22899.5901040034 
724, 22952.2086838959 
725, 22736.3975667131 
726, 22675.3168470198 
727, 22735.6315981426 
728, 22836.4084118574 
729, 22899.6837325742 
730, 23056.2813916834 
731, 23340.169191226 
732, 23734.228158821 
733, 24171.5576615563 
734, 24550.581497116 
735, 24793.1627168363 
736, 24864.8237458129 
737, 24841.6191193807 
738, 24803.962795803 
739, 24771.7262445876 
740, 24716.3340662557 
741, 24698.3105221457 
742, 24727.8405467329 
743, 24798.1245337803 
744, 24892.5386092617 
745, 24952.6099053347 
746, 24972.152237379 
747, 24960.9993989827 
748, 24916.3874669665 
749, 24821.7801978002 
750, 24695.3124193981 
751, 24578.7801841788 
752, 24510.1014038488 
753, 24479.1375837261 
754, 24460.1228536045 
755, 24415.0525619176 
756, 24277.9278153751 
757, 23753.1133678696 
758, 22367.4072213002 
759, 19317.9767707854 
760, 14848.8113612897 
761, 10470.0944934129 
762, 8005.45707497747 
763, 7976.85878307921 
764, 9250.44980232071 
765, 11244.5850507141 
766, 13883.5067672779 
767, 16760.963919762 
768, 19253.8948812102 
769, 20979.3591886027 
770, 21936.3902886394 
771, 22395.3328155243 
772, 22559.4406803935 
773, 22583.5803526621 
774, 22549.1189985444 
775, 22470.1331423782 
776, 22373.4644491771 
777, 22278.7878161481 
778, 22160.74175636 
779, 22025.8833333719 
780, 21892.2614895995 
781, 21781.2101800358 
782, 21661.0170865423 
783, 21521.4226467368 
784, 21366.3171093473 
785, 21215.1291603432 
786, 21063.8018273322 
787, 20890.4375427148 
788, 20677.6749647678 
789, 20431.4746704601 
790, 20177.2271413543 
791, 19922.7107001299 
792, 19670.4620198884 
793, 19435.9698765841 
794, 19244.4207211886 
795, 19111.9534780344 
796, 19039.7054165367 
797, 18983.9371064131 
798, 18899.3688349667 
799, 18763.5635467595 
800, 18584.2444197723 
801, 18383.6707203075 
802, 18196.3725987142 
803, 18040.2810832525 
804, 17893.2950177491 
805, 17767.2768113497 
806, 17651.8218970991 
807, 17524.9445341553 
808, 17355.3666124218 
809, 17145.9001351701 
810, 16910.6024280167 
811, 16660.1965451368 
812, 16354.7291866054 
813, 15950.6516159521 
814, 15445.7164756076 
815, 14884.8230904258 
816, 14369.5334563663 
817, 13971.048542266 
818, 13734.3754862553 
819, 13675.3913097343 
820, 13675.6727233076 
821, 13643.1740388012 
822, 13540.1005886138 
823, 13419.7530497729 
824, 13342.9847794368 
825, 13364.1448427789 
826, 13469.1705053911 
827, 13450.3948021488 
828, 13308.9228510675 
829, 13112.5209243826 
830, 12956.2946998148 
831, 12861.778885291 
832, 12794.6614629555 
833, 12739.7493212309 
834, 12702.2683387911 
835, 12688.7241907362 
836, 12685.5319070823 
837, 12669.2118585252 
838, 12611.0832914952 
839, 12519.8939438263 
840, 12407.4174241651 
841, 12282.8236171541 
842, 12148.4671717501 
843, 12008.8196292756 
844, 11870.1500794263 
845, 11735.7208963578 
846, 11604.6737289899 
847, 11442.1614264243 
848, 11245.3494098658 
849, 11026.4898761442 
850, 10804.9959853386 
851, 10549.2037129329 
852, 10285.5056083898 
853, 10062.8834923694 
854, 9892.97982344809 
855, 9753.26781854815 
856, 9680.20124878519 
857, 9726.09313965387 
858, 9809.14865599888 
859, 9818.99453432834 
860, 9734.24562085873 
861, 9613.54561923309 
862, 9471.48989013947 
863, 9293.77028587405 
864, 9082.44131979778 
865, 8863.11415699076 
866, 8654.96339699632 
867, 8476.76703819518 
868, 8354.20621760739 
869, 8319.79973444629 
870, 8325.08314843188 
871, 8303.3238371025 
872, 8220.54395159935 
873, 8105.67226734521 
874, 7987.92276704817 
875, 7870.58170107378 
876, 7751.69043234131 
877, 7636.66058716769 
878, 7525.28113932641 
879, 7416.37726924401 
880, 7307.62611968824 
881, 7194.42167485068 
882, 7085.24567596758 
883, 6982.69458236552 
884, 6885.73772183501 
885, 6790.84599087893 
886, 6688.23920438596 
887, 6581.93948389155 
888, 6479.58494799098 
889, 6377.88394136276 
890, 6275.62041241563 
891, 6163.06048246904 
892, 6028.02100769779 
893, 5866.21499673926 
894, 5680.79337353826 
895, 5475.13442945638 
896, 5255.68444644977 
897, 5039.14275573911 
898, 4836.63498568982 
899, 4668.05351287969 
900, 4552.98534712113 
901, 4486.80498865326 
902, 4458.81760893076 
903, 4450.08829256542 
904, 4438.37383950416 
905, 4411.8246009138 
906, 4362.02151336235 
907, 4279.49384183593 
908, 4161.30934542265 
909, 4037.8616977426 
910, 3933.80783865591 
911, 3858.10214908258 
912, 3805.24856747408 
913, 3762.56615889942 
914, 3720.54654127142 
915, 3678.36552684341 
916, 3642.14949833404 
917, 3618.94313959628 
918, 3601.03312714388 
919, 3584.18200180166 
920, 3567.5439037439 
921, 3548.81454488676 
922, 3519.92533996587 
923, 3473.84531569346 
924, 3405.76657817445 
925, 3314.26120477947 
926, 3205.60280840964 
927, 3076.57024534997 
928, 2918.82095552573 
929, 2734.88519715605 
930, 2528.99834830125 
931, 2309.90063727606 
932, 2092.73733268764 
933, 1906.40004387907 
934, 1757.7022366328 
935, 1655.64139723572 
936, 1605.51336404475 
937, 1594.24818522296 
938, 1608.0032559358 
939, 1629.72289729371 
940, 1646.30357321903 
941, 1663.87727305878 
942, 1670.83746650788 
943, 1656.86374711837 
944, 1619.27146052049 
945, 1573.04805513395 
946, 1534.52625181411 
947, 1510.7515984038 
948, 1500.92286536854 
949, 1497.5728120182 
950, 1494.91527528002 
951, 1490.21326352008 
952, 1482.90932320009 
953, 1473.71041296388 
954, 1465.61741812344 
955, 1456.98185422927 
956, 1447.9043649218 
957, 1444.162383329 
958, 1441.7460742991 
959, 1438.22544983506 
960, 1435.21864783095 
961, 1438.87571269091 
962, 1438.83048763596 
963, 1440.05707566865 
964, 1445.01932813909 
965, 1449.57293451329 
966, 1450.37980563481 
967, 1447.39890412629 
968, 1441.0470285378 
969, 1431.68017671335 
970, 1420.18722476399 
971, 1404.25454810028 
972, 1383.06383831132 
973, 1357.1380020528 
974, 1326.20169796248 
975, 1295.34654043762 
976, 1265.05634444486 
977, 1235.06186666749 
978, 1211.52199591755 
979, 1191.55435308178 
980, 1174.32995758926 
981, 1158.76086937293 
982, 1141.75829735065 
983, 1123.94061926775 
984, 1105.82818915689 
985, 1087.06417666265 
986, 1066.0319597468 
987, 1043.02187872045 
988, 1020.42008086412 
989, 997.890333414219 
990, 972.608308260472 
991, 948.700632278854 
992, 924.970065048272 
993, 901.095363795382 
994, 877.85038480786 
995, 856.092291713088 
996, 834.125063766107 
997, 810.300953804308 
998, 784.750312250325 
999, 761.872971813388 
1000, 740.918952836319 
1001, 4608.80616878779 
1002, 4583.75080271024 
1003, 4562.50952477553 
1004, 4543.412546221 
1005, 4523.54407755967 
1006, 4510.89813748212 
1007, 4498.95246367255 
1008, 4492.3610764884 
1009, 4491.35164793437 
1010, 4496.42901692822 
1011, 4505.15754804057 
1012, 4522.14413933619 
1013, 4533.97521494996 
1014, 4548.23613509159 
1015, 4564.16459773048 
1016, 4574.38547227358 
1017, 4589.18139278668 
1018, 4606.17521881018 
1019, 4619.58824330493 
1020, 4633.66430477167 
1021, 4652.29974279046 
1022, 4670.68818198996 
1023, 4690.53875288038 
1024, 4709.60958964808 
1025, 4732.37630302089 
1026, 4755.86404651922 
1027, 4780.96437149785 
1028, 4811.65623249254 
1029, 4842.4862571125 
1030, 4871.73431314607 
1031, 4895.93482751938 
1032, 4918.35785857495 
1033, 4941.13196748762 
1034, 4957.69869833865 
1035, 4977.71625319593 
1036, 4999.90693452421 
1037, 5024.77257157934 
1038, 5046.88476731576 
1039, 5070.44496147396 
1040, 5097.67900093642 
1041, 5121.92908748273 
1042, 5141.18235019922 
1043, 5159.7509382796 
1044, 5177.60489763812 
1045, 5192.97097321022 
1046, 5210.07942218133 
1047, 5233.98650578234 
1048, 5265.56367902604 
1049, 5292.44466096784 
1050, 5315.3952351292 
1051, 5344.88138127748 
1052, 5368.63074772207 
1053, 5391.89792147995 
1054, 5423.06293280424 
1055, 5451.17398204559 
1056, 5477.93092755069 
1057, 5509.29373405245 
1058, 5546.92195884996 
1059, 5592.47080192413 
1060, 5640.20855937468 
1061, 5696.72342606807 
1062, 5750.63662426717 
1063, 5805.40936035898 
1064, 5857.77090400434 
1065, 5922.44874945292 
1066, 5989.01509804313 
1067, 6058.70395862601 
1068, 6141.0023566737 
1069, 6221.66740843197 
1070, 6305.71457813969 
1071, 6403.69794742916 
1072, 6497.3070518619 
1073, 6590.54636096832 
1074, 6692.05916732134 
1075, 6780.4055846411 
1076, 6862.56142643654 
1077, 6940.54619005296 
1078, 7010.96884821833 
1079, 7073.5426680939 
1080, 7129.67579286645 
1081, 7181.03605170409 
1082, 7223.42562791774 
1083, 7261.67915676107 
1084, 7298.04899149998 
1085, 7338.64906118359 
1086, 7374.61032607372 
1087, 7413.84546767999 
1088, 7438.99141608249 
1089, 7459.54582830834 
1090, 7467.74530002926 
1091, 7460.2133064954 
1092, 7460.68689310581 
1093, 7451.87310861704 
1094, 7432.01345816742 
1095, 7405.77159394122 
1096, 7371.41193625962 
1097, 7328.68767114864 
1098, 7290.14772234088 
1099, 7258.35146059092 
1100, 7234.18403285452 
1101, 7204.69728372472 
1102, 7186.08161209775 
1103, 7148.07527208422 
1104, 7104.19268203625 
1105, 7051.16525701935 
1106, 6985.27149884253 
1107, 6907.36145335859 
1108, 6808.85349510005 
1109, 6683.55842058245 
1110, 6518.27373955359 
1111, 6312.61098380357 
1112, 6070.54396873412 
1113, 5773.75498953417 
1114, 5482.64641363452 
1115, 5141.47337670652 
1116, 4836.96925472137 
1117, 4512.02477277921 
1118, 4237.53913092008 
1119, 3987.41003095148 
1120, 3754.90210356557 
1121, 3571.07617419277 
1122, 3421.26270621534 
1123, 3305.17441135987 
1124, 3236.20094769246 
1125, 3198.84819957604 
1126, 3211.0063372653 
1127, 3226.78904772479 
1128, 3280.27067402338 
1129, 3329.17787999836 
1130, 3398.45116660782 
1131, 3462.29633502105 
1132, 3519.70133051292 
1133, 3601.02661318201 
1134, 3691.2542206915 
1135, 3788.3405981739 
1136, 3925.6303489924 
1137, 4067.1705714767 
1138, 4199.16782029232 
1139, 4315.52440926454 
1140, 4388.10734664236 
1141, 4434.73096102777 
1142, 4448.4925870305 
1143, 4408.81019435962 
1144, 4383.86134104368 
1145, 4300.63049858212 
1146, 4284.18909288851 
1147, 4272.00125525444 
1148, 4307.61427030578 
1149, 4390.03223535983 
1150, 4497.82893883592 
1151, 4643.77279080322 
1152, 4808.68703240453 
1153, 4976.25395544421 
1154, 5173.4890252272 
1155, 5355.95336518678 
1156, 5542.84067370096 
1157, 5721.18590502236 
1158, 5905.07016779808 
1159, 6070.73938330301 
1160, 6233.82238481586 
1161, 6375.06981525014 
1162, 6506.69610896002 
1163, 6616.13730241722 
1164, 6704.55485607968 
1165, 6777.06215395006 
1166, 6829.0363423132 
1167, 6869.12736336498 
1168, 6894.38319665372 
1169, 6903.88959420509 
1170, 6899.81738138816 
1171, 6879.03919078822 
1172, 6850.14789531616 
1173, 6804.32933784811 
1174, 6757.2544251801 
1175, 6701.82061674622 
1176, 6640.43549120993 
1177, 6569.22984557184 
