Wavelength,0212202100008.asd
350, 164.579509034062 
351, 173.724503190506 
352, 181.492407685528 
353, 186.225111770808 
354, 192.563252925081 
355, 199.73548279979 
356, 206.044245113171 
357, 211.464625195573 
358, 218.997118073555 
359, 228.012512260823 
360, 236.66567817003 
361, 247.62485536715 
362, 260.036527880418 
363, 272.630828994738 
364, 284.202826909679 
365, 297.095726407255 
366, 309.026697003983 
367, 318.412220474576 
368, 326.710507352307 
369, 331.151117661037 
370, 333.241453041883 
371, 334.637853670249 
372, 331.069642433438 
373, 330.205442221442 
374, 331.718995346284 
375, 330.629426838039 
376, 333.202597836727 
377, 334.018929783108 
378, 330.918387840979 
379, 327.888513077671 
380, 325.077601927345 
381, 321.387387411246 
382, 316.009296362364 
383, 309.896493006243 
384, 304.471919764347 
385, 301.130213155818 
386, 301.492708218329 
387, 309.573316657396 
388, 317.478147180047 
389, 321.937803354883 
390, 325.593988261548 
391, 329.362249970515 
392, 332.111747553378 
393, 333.677779235386 
394, 336.322096531138 
395, 346.472172821718 
396, 363.116049942015 
397, 383.533514136777 
398, 413.567732374723 
399, 447.083428572921 
400, 481.041407547805 
401, 515.384277593017 
402, 545.754433764426 
403, 570.210527862242 
404, 588.45386650781 
405, 601.874961419421 
406, 614.103851147389 
407, 625.841436320822 
408, 637.647611254123 
409, 654.326168326844 
410, 673.950490290787 
411, 694.201274424677 
412, 713.11572957236 
413, 734.274397616233 
414, 755.53784226646 
415, 775.168427619818 
416, 793.532530899645 
417, 811.092445470118 
418, 828.158934071282 
419, 844.891304382004 
420, 861.057861700012 
421, 877.264299556071 
422, 893.924772037707 
423, 911.14478217108 
424, 928.486138277101 
425, 941.741908362467 
426, 948.194385075687 
427, 948.112153674979 
428, 946.053270201337 
429, 948.551889760411 
430, 960.442807521758 
431, 978.251717248583 
432, 1002.16422180012 
433, 1036.60437102126 
434, 1086.78380862633 
435, 1136.34112117756 
436, 1174.33540579865 
437, 1200.13550872482 
438, 1228.42653589689 
439, 1254.493115908 
440, 1278.95993578776 
441, 1304.28080034341 
442, 1334.87574597821 
443, 1365.23247501306 
444, 1392.31447593874 
445, 1415.4525163403 
446, 1434.25517848481 
447, 1451.32812302942 
448, 1469.49435759917 
449, 1491.6860595278 
450, 1509.34821810704 
451, 1517.25080022512 
452, 1514.32864653715 
453, 1511.01991709264 
454, 1503.94184429832 
455, 1493.93428506238 
456, 1486.03279848752 
457, 1484.61989891414 
458, 1485.2663305208 
459, 1483.60218929427 
460, 1478.8724340585 
461, 1474.0211790223 
462, 1468.5594004695 
463, 1460.7183803063 
464, 1450.29380279509 
465, 1435.20471382946 
466, 1416.44432538977 
467, 1398.28133409353 
468, 1385.49295625955 
469, 1375.76109789505 
470, 1367.58895385127 
471, 1366.42855429931 
472, 1366.38816900888 
473, 1366.38195194951 
474, 1367.23655781234 
475, 1366.30699786927 
476, 1365.47915827789 
477, 1365.95546477564 
478, 1367.56408810196 
479, 1371.3588542043 
480, 1376.31409461483 
481, 1379.73544603159 
482, 1376.29649255191 
483, 1365.0450721667 
484, 1343.55136629249 
485, 1310.72074246078 
486, 1280.61373321532 
487, 1260.01843809232 
488, 1255.12826909815 
489, 1273.83739910911 
490, 1295.38745323832 
491, 1310.73520116369 
492, 1317.38665224289 
493, 1320.87101062471 
494, 1325.04737458607 
495, 1332.34022803269 
496, 1342.88490264526 
497, 1344.50307428037 
498, 1339.88100481052 
499, 1332.4961367075 
500, 1320.82282663642 
501, 1313.58686673121 
502, 1311.69785617053 
503, 1314.02928340224 
504, 1328.28996306469 
505, 1345.0032169652 
506, 1359.72751183234 
507, 1374.57686831121 
508, 1384.50610114607 
509, 1391.65086871409 
510, 1399.2090923193 
511, 1409.02024670588 
512, 1415.57483240693 
513, 1416.23536769402 
514, 1410.29324766692 
515, 1397.85316753296 
516, 1381.32319155713 
517, 1365.83427095909 
518, 1359.51749824827 
519, 1373.93325068651 
520, 1408.81059402488 
521, 1455.42390172267 
522, 1493.21314110804 
523, 1520.70558328864 
524, 1539.78476148716 
525, 1554.4051029387 
526, 1559.91254028202 
527, 1561.84226744615 
528, 1570.61770512788 
529, 1604.90743626149 
530, 1646.47805622802 
531, 1679.03009994051 
532, 1691.49091492007 
533, 1697.50313285505 
534, 1706.10975964579 
535, 1722.72893174929 
536, 1748.46973666516 
537, 1766.80997196224 
538, 1774.84370765153 
539, 1775.24852149503 
540, 1774.90671631276 
541, 1776.36413332869 
542, 1785.33537576173 
543, 1807.02006554671 
544, 1830.69806302939 
545, 1851.41987857813 
546, 1865.8234930812 
547, 1871.45315341658 
548, 1877.01677403124 
549, 1884.62226648178 
550, 1893.68091952274 
551, 1902.69286228122 
552, 1910.07440487686 
553, 1915.99999515436 
554, 1921.94593118105 
555, 1926.62041730527 
556, 1924.22676805314 
557, 1912.00324670905 
558, 1894.13949049594 
559, 1879.4251295015 
560, 1873.7781829684 
561, 1879.35020894325 
562, 1888.31051950458 
563, 1893.73628404735 
564, 1891.58752353429 
565, 1881.25771421756 
566, 1867.78279068849 
567, 1855.06940636626 
568, 1844.83876790512 
569, 1833.93995787029 
570, 1818.90380623375 
571, 1804.76808673801 
572, 1800.94806324439 
573, 1803.62964309501 
574, 1803.60906936069 
575, 1795.13159859995 
576, 1778.84636062583 
577, 1764.51385439366 
578, 1757.55966738798 
579, 1760.28567940924 
580, 1769.66934788577 
581, 1786.64252759268 
582, 1806.82825726094 
583, 1821.29041398283 
584, 1832.42538241059 
585, 1832.34174098569 
586, 1818.58173624845 
587, 1805.58463661934 
588, 1789.37727699967 
589, 1764.97678093349 
590, 1732.43032034711 
591, 1728.24164670826 
592, 1740.88435953384 
593, 1754.07932899195 
594, 1751.96560694281 
595, 1740.51502320374 
596, 1727.04989377875 
597, 1716.17023487429 
598, 1700.96887003778 
599, 1681.43870456974 
600, 1660.92668669975 
601, 1644.73023861208 
602, 1631.71229367511 
603, 1625.106918243 
604, 1625.3286364316 
605, 1627.75441278272 
606, 1622.77863651314 
607, 1611.95913983831 
608, 1600.79289079559 
609, 1590.42205620576 
610, 1579.86167812592 
611, 1570.28973218865 
612, 1564.60016317924 
613, 1556.37099771358 
614, 1544.87107117993 
615, 1532.29414682981 
616, 1524.66464801376 
617, 1520.43869356414 
618, 1521.61357899096 
619, 1529.86731160419 
620, 1536.73525187646 
621, 1536.52462691997 
622, 1528.21987420171 
623, 1516.16584786773 
624, 1501.60875335368 
625, 1487.97746452363 
626, 1477.65198035206 
627, 1469.12439127433 
628, 1457.66232660306 
629, 1446.13600878041 
630, 1441.91350792052 
631, 1444.85966324944 
632, 1450.57165344098 
633, 1455.93056408581 
634, 1460.94091964667 
635, 1467.65445306582 
636, 1472.57325234742 
637, 1472.56323859672 
638, 1474.19118217248 
639, 1471.98449275143 
640, 1464.13161050527 
641, 1452.74278405686 
642, 1445.03957452804 
643, 1441.65430817464 
644, 1439.89858263209 
645, 1433.00981560995 
646, 1424.09866711927 
647, 1413.80908093831 
648, 1402.6872725258 
649, 1394.34345467621 
650, 1387.49215087158 
651, 1383.38875245706 
652, 1385.54613190604 
653, 1382.64424828442 
654, 1367.31101587613 
655, 1337.9536563437 
656, 1301.43020360797 
657, 1276.24285505201 
658, 1280.39604710529 
659, 1321.30386165025 
660, 1353.02765264422 
661, 1367.82039277043 
662, 1369.22462293878 
663, 1369.6887371662 
664, 1369.77048699945 
665, 1369.34212169029 
666, 1368.28753317305 
667, 1368.48334361101 
668, 1368.26933129714 
669, 1367.01710895237 
670, 1364.71041898072 
671, 1360.95123039483 
672, 1358.31221381997 
673, 1358.17991975444 
674, 1359.9387852343 
675, 1361.0426528372 
676, 1361.66420645589 
677, 1362.56404377581 
678, 1363.62976432284 
679, 1364.80693508052 
680, 1365.22067782813 
681, 1363.80232236979 
682, 1362.86308230921 
683, 1359.26009217589 
684, 1347.11690995882 
685, 1317.98428888637 
686, 1264.35062360428 
687, 1188.56297843372 
688, 1110.0791326667 
689, 1088.42898741632 
690, 1120.02114846264 
691, 1179.0836059906 
692, 1228.31823339217 
693, 1272.2151705214 
694, 1303.3902366384 
695, 1321.05074108162 
696, 1334.84976658241 
697, 1345.75816526143 
698, 1351.60810610416 
699, 1350.75256486191 
700, 1346.8565976218 
701, 1344.62584682681 
702, 1345.76708118251 
703, 1350.16868917125 
704, 1361.73057604357 
705, 1375.16371868943 
706, 1385.22046793766 
707, 1388.39167625939 
708, 1393.63619625312 
709, 1399.35640716662 
710, 1402.61937028558 
711, 1406.35593170965 
712, 1408.24698545117 
713, 1408.74769775571 
714, 1408.97824279569 
715, 1403.25306311548 
716, 1388.5685788467 
717, 1361.88019577495 
718, 1319.94796616709 
719, 1286.81183152 
720, 1277.31143611585 
721, 1295.52133754972 
722, 1328.79214649869 
723, 1350.07184347361 
724, 1350.98658199444 
725, 1338.32715663905 
726, 1338.67142458324 
727, 1345.08090208357 
728, 1350.51075009995 
729, 1351.80558185496 
730, 1359.45690230064 
731, 1374.86327363176 
732, 1395.63634620448 
733, 1416.27295589272 
734, 1433.90392528892 
735, 1445.31825197167 
736, 1448.62002920639 
737, 1446.16384754977 
738, 1443.62505901658 
739, 1441.84603546498 
740, 1437.76155450026 
741, 1435.84381519149 
742, 1437.61489460789 
743, 1442.83143351522 
744, 1449.380828293 
745, 1453.88547568026 
746, 1455.029898936 
747, 1453.37540728302 
748, 1452.82424298557 
749, 1451.05668151764 
750, 1445.88033797935 
751, 1436.85829961991 
752, 1434.58342046727 
753, 1435.99301155216 
754, 1436.96251925812 
755, 1434.12139714626 
756, 1427.96985378142 
757, 1399.64099148858 
758, 1318.04124523555 
759, 1130.98648666214 
760, 861.012732429206 
761, 607.735358327274 
762, 483.751781027911 
763, 497.286749134347 
764, 581.880624098045 
765, 705.091561896535 
766, 864.453420766189 
767, 1034.16959150671 
768, 1176.59851446135 
769, 1271.75031425024 
770, 1326.85447390303 
771, 1353.22283578419 
772, 1362.19393440955 
773, 1363.4879064596 
774, 1363.20865349891 
775, 1361.6035384352 
776, 1358.9218471517 
777, 1355.06412884334 
778, 1349.52347152115 
779, 1343.77748078373 
780, 1338.33632021462 
781, 1332.79861041025 
782, 1327.85073686267 
783, 1322.12759454431 
784, 1315.11949855096 
785, 1308.06180212425 
786, 1300.0720945454 
787, 1290.94410650443 
788, 1280.73738120825 
789, 1269.84179870702 
790, 1257.13700962986 
791, 1243.03168983622 
792, 1228.53350738321 
793, 1213.14432282124 
794, 1202.46259109035 
795, 1196.92497646878 
796, 1192.91569620652 
797, 1192.12785431762 
798, 1188.51797283115 
799, 1179.58853086997 
800, 1168.67501696412 
801, 1157.47543802473 
802, 1147.65876952564 
803, 1139.1078725761 
804, 1127.97907089003 
805, 1118.65934997727 
806, 1111.1108595226 
807, 1103.4661138341 
808, 1093.50282878897 
809, 1080.98042694272 
810, 1067.11765248133 
811, 1053.36334439116 
812, 1037.82585195798 
813, 1016.39749751185 
814, 988.223341637964 
815, 956.231899256374 
816, 927.138094469452 
817, 903.525236367649 
818, 888.164527813247 
819, 884.992361133296 
820, 881.059978187926 
821, 875.679532607029 
822, 870.11345088226 
823, 862.01789675441 
824, 858.068404917512 
825, 859.322095465922 
826, 862.784492352594 
827, 860.297691479278 
828, 849.698842554449 
829, 836.863870761374 
830, 829.810467597731 
831, 822.897328818209 
832, 817.375404598855 
833, 812.819035489836 
834, 807.689612377968 
835, 805.276227040407 
836, 803.722209003656 
837, 801.47106512422 
838, 798.115982415138 
839, 792.942389980729 
840, 785.134740660649 
841, 775.732199624834 
842, 768.617926473364 
843, 760.663528721313 
844, 752.291337515188 
845, 744.348483372064 
846, 736.646659083477 
847, 728.04406526659 
848, 716.270709296431 
849, 700.751639849157 
850, 687.453244533258 
851, 673.448389827616 
852, 659.253278389409 
853, 646.687735786794 
854, 635.150411366269 
855, 626.985026754548 
856, 624.386568425419 
857, 628.367502254221 
858, 636.206995959159 
859, 637.581999927573 
860, 631.962453358337 
861, 627.006530286435 
862, 618.490245337573 
863, 608.054550066255 
864, 596.927023696705 
865, 585.093717980181 
866, 572.430876898797 
867, 561.979582167513 
868, 556.250295726653 
869, 555.972625959244 
870, 556.899961902921 
871, 555.898064672433 
872, 551.816710372304 
873, 546.326463424797 
874, 540.627483829286 
875, 534.245694282995 
876, 527.038943504818 
877, 520.75509614576 
878, 513.6341325892 
879, 507.470766436324 
880, 503.374047806064 
881, 497.748798643715 
882, 490.942726419346 
883, 484.55869249771 
884, 479.564989416179 
885, 473.04868462548 
886, 467.247826726922 
887, 461.291323628823 
888, 454.265151108024 
889, 450.466936832241 
890, 444.540496871223 
891, 437.169782258527 
892, 430.64871723685 
893, 420.195046420724 
894, 408.850385283599 
895, 396.830570233406 
896, 383.165834289761 
897, 369.465480733766 
898, 357.518198634088 
899, 347.750896871699 
900, 339.942984630025 
901, 335.472464769786 
902, 334.087842162698 
903, 333.30053816808 
904, 330.20955734714 
905, 327.403720073185 
906, 324.072294567634 
907, 319.461468948391 
908, 313.155113529978 
909, 305.26106160119 
910, 296.679195472018 
911, 290.121256084342 
912, 288.190209217816 
913, 286.162207063117 
914, 283.257290188171 
915, 280.157411197643 
916, 278.145201640837 
917, 276.718143356251 
918, 274.290561816764 
919, 271.254401700688 
920, 269.318032813798 
921, 268.809385789066 
922, 265.594663343735 
923, 260.529371253726 
924, 257.064415550881 
925, 250.323153880077 
926, 242.806593553323 
927, 234.379334544287 
928, 223.360085780298 
929, 212.014355471849 
930, 198.2713911248 
931, 182.966575039997 
932, 168.817640927045 
933, 157.032467190934 
934, 146.696157368906 
935, 139.305195327693 
936, 136.580816223058 
937, 134.59091266902 
938, 135.646107235795 
939, 137.533008786689 
940, 137.343228284816 
941, 139.850466701504 
942, 139.954244085454 
943, 138.310535024648 
944, 136.857919169254 
945, 131.251296056176 
946, 128.197826631027 
947, 127.24597660039 
948, 126.09631667287 
949, 126.585901750336 
950, 125.748215029349 
951, 124.258696694511 
952, 123.758447212644 
953, 125.084293276933 
954, 124.06218761181 
955, 122.034721602815 
956, 120.923595751097 
957, 120.389576500253 
958, 122.146610073345 
959, 121.327188824291 
960, 118.398275220363 
961, 122.936205039251 
962, 122.839573343204 
963, 121.702715117137 
964, 121.875859914558 
965, 120.989254299054 
966, 121.418156997273 
967, 121.711569254498 
968, 121.396979990398 
969, 121.204221195567 
970, 120.17430862155 
971, 119.5114714286 
972, 118.633619788083 
973, 116.275841391982 
974, 114.416962229698 
975, 113.318938105768 
976, 111.492276926211 
977, 108.198298911534 
978, 108.228327522493 
979, 106.236097961134 
980, 104.289860519206 
981, 104.582487247577 
982, 103.110164635967 
983, 101.512754237614 
984, 100.166091485878 
985, 99.0560071100793 
986, 97.952915466928 
987, 95.322909763204 
988, 93.696195966305 
989, 92.8478180076612 
990, 89.6330753869008 
991, 87.7914084976127 
992, 87.1833968574282 
993, 86.4881848890211 
994, 84.5845071940673 
995, 83.76246521245 
996, 81.6682306001753 
997, 79.4250821396548 
998, 78.4424893094959 
999, 75.7054551007277 
1000, 73.6402711537136 
1001, 441.588360200867 
1002, 445.506953606242 
1003, 448.45571114323 
1004, 450.429501278943 
1005, 450.036887407052 
1006, 451.40535719429 
1007, 448.223724404705 
1008, 443.846519694206 
1009, 444.495706916848 
1010, 448.296014596437 
1011, 450.647003350259 
1012, 454.685272155169 
1013, 462.578405663041 
1014, 468.190879702091 
1015, 470.614772693939 
1016, 477.450010956406 
1017, 481.032198316908 
1018, 480.31577082638 
1019, 485.459110081361 
1020, 488.435046734472 
1021, 489.510372679127 
1022, 490.313010543264 
1023, 489.308930425647 
1024, 487.980962242087 
1025, 494.121796568407 
1026, 497.320645454958 
1027, 500.602620046491 
1028, 507.58833685657 
1029, 507.028136979154 
1030, 510.737975709535 
1031, 519.995374316953 
1032, 523.584698620811 
1033, 527.739755872539 
1034, 530.761817126281 
1035, 531.256554807514 
1036, 527.314084710448 
1037, 526.512475427316 
1038, 527.26788659739 
1039, 525.164473877021 
1040, 525.182622547686 
1041, 527.603578288445 
1042, 532.992773646359 
1043, 541.426170101479 
1044, 544.479624474133 
1045, 542.422667012475 
1046, 535.543121785111 
1047, 533.953078407032 
1048, 530.157688242607 
1049, 534.608075042451 
1050, 540.054016615643 
1051, 545.04984645456 
1052, 548.113830575672 
1053, 542.163364363999 
1054, 534.349780793211 
1055, 534.010718844393 
1056, 535.126937456286 
1057, 539.9612758644 
1058, 546.210643493555 
1059, 550.254325323232 
1060, 554.630717247277 
1061, 555.223149805412 
1062, 556.158225311017 
1063, 558.870351175156 
1064, 562.060123542083 
1065, 558.030500736182 
1066, 562.129375067839 
1067, 567.745955982926 
1068, 573.9003997484 
1069, 584.527463661769 
1070, 589.38157433037 
1071, 596.783604236485 
1072, 605.184022628672 
1073, 610.989962691534 
1074, 615.164016189188 
1075, 620.535085720364 
1076, 624.34711107877 
1077, 628.929721899506 
1078, 637.353783507529 
1079, 648.451590712328 
1080, 654.734407904272 
1081, 659.887869545883 
1082, 662.733874065193 
1083, 659.219703494469 
1084, 659.238391107457 
1085, 663.224529961224 
1086, 667.942849089697 
1087, 675.509900089976 
1088, 681.155402786 
1089, 690.833368388338 
1090, 692.948905168307 
1091, 689.381086311368 
1092, 687.397086594948 
1093, 683.386702548967 
1094, 678.320372556188 
1095, 678.293765296408 
1096, 685.846950625136 
1097, 689.568525462294 
1098, 693.418717359495 
1099, 695.913359858881 
1100, 695.490703534797 
1101, 693.441571332055 
1102, 690.815696832689 
1103, 688.47144317724 
1104, 684.709065127714 
1105, 682.039417030956 
1106, 678.509872014604 
1107, 667.431226906431 
1108, 653.733325090857 
1109, 643.099390540957 
1110, 625.433170841818 
1111, 610.51985537241 
1112, 593.254228685809 
1113, 572.399083152648 
1114, 549.831730274189 
1115, 524.92517760356 
1116, 503.791714498204 
1117, 483.43099054855 
1118, 462.47898836132 
1119, 444.326601044352 
1120, 421.942716706505 
1121, 401.364589611216 
1122, 382.512948943008 
1123, 369.3862321168 
1124, 362.272756608881 
1125, 360.969231859988 
1126, 367.506608449276 
1127, 370.766177500625 
1128, 378.644642111768 
1129, 386.9078023911 
1130, 395.980081859122 
1131, 402.87098501507 
1132, 412.450802903644 
1133, 419.924515354328 
1134, 424.852501949545 
1135, 424.318535569894 
1136, 435.795481238819 
1137, 452.027553890076 
1138, 461.525747418576 
1139, 474.258612480306 
1140, 480.969347302278 
1141, 478.524545857504 
1142, 481.104355840747 
1143, 486.459502519452 
1144, 488.260747647247 
1145, 486.478584951798 
1146, 488.82378027646 
1147, 485.932515018025 
1148, 492.197337508803 
1149, 504.708038050878 
1150, 520.865407829602 
1151, 540.63922800214 
1152, 560.296662915438 
1153, 582.356379384335 
1154, 607.302973036924 
1155, 629.938552161733 
1156, 655.629523967369 
1157, 677.398618860727 
1158, 696.327225559196 
1159, 714.466393292759 
1160, 728.691987732571 
1161, 746.785254538786 
1162, 769.115296577579 
1163, 785.478979257654 
1164, 799.723659653386 
1165, 815.953583158439 
1166, 829.994496426154 
1167, 834.335694983331 
1168, 841.792101878593 
1169, 850.444988509161 
1170, 857.103670143691 
1171, 860.545421661994 
1172, 864.75340092071 
1173, 869.401540396265 
1174, 872.365277043833 
1175, 873.893059441677 
1176, 875.001547150642 
1177, 876.875456148962 
1178, 875.65408787492 
