Wavelength,0212202100072.asd
350, 481.438615777124 
351, 507.63990205011 
352, 530.774737240256 
353, 550.777666262171 
354, 569.77946807796 
355, 589.627639062807 
356, 611.073580089354 
357, 632.073799804649 
358, 653.799064834332 
359, 677.463241742476 
360, 704.35046432377 
361, 735.566182747369 
362, 772.073978724508 
363, 812.064301987626 
364, 851.432284979759 
365, 893.08043347243 
366, 932.669577612295 
367, 966.063732717232 
368, 992.065111268087 
369, 1008.81109032444 
370, 1015.40837948814 
371, 1013.44348188039 
372, 1010.38482186517 
373, 1010.7822014843 
374, 1014.05593189689 
375, 1016.39134582749 
376, 1019.11568091219 
377, 1022.18235402292 
378, 1022.16878466412 
379, 1011.6042892713 
380, 999.328160843418 
381, 986.850631079593 
382, 973.531262983526 
383, 958.048010779649 
384, 940.584818918742 
385, 927.269445772762 
386, 927.091985522647 
387, 947.642493717555 
388, 975.36435455189 
389, 998.278984621126 
390, 1009.24406454197 
391, 1020.88964893863 
392, 1033.18175968241 
393, 1044.34634493367 
394, 1052.72206409537 
395, 1075.59957938137 
396, 1119.80193912089 
397, 1187.23238743589 
398, 1280.94617263158 
399, 1388.27219313816 
400, 1498.33617944408 
401, 1603.43554799637 
402, 1706.01634633892 
403, 1791.40409014398 
404, 1852.75393564232 
405, 1901.84453803688 
406, 1940.89770286852 
407, 1975.45337161073 
408, 2012.86528710595 
409, 2064.07691758159 
410, 2124.08556366275 
411, 2189.82757387582 
412, 2259.89748324267 
413, 2330.58228764889 
414, 2399.67045202219 
415, 2464.936391715 
416, 2523.39172219172 
417, 2578.17190465022 
418, 2634.77200781912 
419, 2695.43918471364 
420, 2746.80649477186 
421, 2799.11576182764 
422, 2856.77402369848 
423, 2918.35101323462 
424, 2975.65459251896 
425, 3022.16555432321 
426, 3050.69591448722 
427, 3051.53653619768 
428, 3040.37555326947 
429, 3044.88028416901 
430, 3085.83397576115 
431, 3144.29054927825 
432, 3217.91074364246 
433, 3324.2792572216 
434, 3487.90071998998 
435, 3659.79538802444 
436, 3791.84430539575 
437, 3875.19580639647 
438, 3964.15560107599 
439, 4054.89267941663 
440, 4139.9221242732 
441, 4216.79599179075 
442, 4315.76400530092 
443, 4420.90753480484 
444, 4517.89894416728 
445, 4596.15153206739 
446, 4659.63837582353 
447, 4717.79664256937 
448, 4780.04457734411 
449, 4855.74974267016 
450, 4919.24803763992 
451, 4953.45573753901 
452, 4952.69374390166 
453, 4943.70355613741 
454, 4919.55124827074 
455, 4886.36306718258 
456, 4862.48970265375 
457, 4858.67986148471 
458, 4862.5423494729 
459, 4861.00278043954 
460, 4849.08722599322 
461, 4834.28353025352 
462, 4817.35902249964 
463, 4795.85479056329 
464, 4766.54676050724 
465, 4721.21203570085 
466, 4663.48713249454 
467, 4609.12633505063 
468, 4563.51022151138 
469, 4530.97301722465 
470, 4512.91529820536 
471, 4507.20651090393 
472, 4503.1599746485 
473, 4503.03748672655 
474, 4512.4880374898 
475, 4514.12537930263 
476, 4512.34799643887 
477, 4512.13788327126 
478, 4516.57017326597 
479, 4532.24308505845 
480, 4553.80594493437 
481, 4570.09932783807 
482, 4565.73122435081 
483, 4532.29451127251 
484, 4462.71649291262 
485, 4357.38763543219 
486, 4257.0002130673 
487, 4186.29221200022 
488, 4165.44643028385 
489, 4213.63892790807 
490, 4291.80892980319 
491, 4356.74624981343 
492, 4379.913100305 
493, 4390.57735370794 
494, 4404.65523211852 
495, 4429.68297210841 
496, 4463.44466997707 
497, 4475.86815360823 
498, 4465.50032681875 
499, 4438.60032094059 
500, 4403.2960614103 
501, 4377.07819316173 
502, 4367.52279321131 
503, 4378.20775881797 
504, 4420.22485812734 
505, 4476.93715729025 
506, 4533.54305756551 
507, 4579.90100474199 
508, 4616.16142073124 
509, 4644.67941788038 
510, 4670.35130990059 
511, 4704.00645527597 
512, 4728.77981043815 
513, 4734.62827460963 
514, 4716.95766205245 
515, 4680.38798960549 
516, 4629.85445954102 
517, 4578.95368918148 
518, 4551.81215372536 
519, 4590.50721760998 
520, 4699.65416149967 
521, 4854.48610076723 
522, 4984.37097375471 
523, 5081.54612364701 
524, 5149.76286305707 
525, 5200.67754409632 
526, 5225.75882851032 
527, 5237.4073205298 
528, 5265.11712673245 
529, 5370.4664539355 
530, 5506.95259957615 
531, 5622.23858600573 
532, 5673.62445200659 
533, 5690.06216682372 
534, 5714.71090167912 
535, 5770.55386201222 
536, 5855.29322634097 
537, 5918.38499446659 
538, 5948.45830748733 
539, 5951.77622025023 
540, 5949.48113784451 
541, 5955.35064579326 
542, 5986.62155566344 
543, 6055.81975027511 
544, 6134.29614293407 
545, 6201.69772324676 
546, 6248.24238973796 
547, 6277.84970705783 
548, 6296.11039597509 
549, 6316.29547126231 
550, 6348.38697474925 
551, 6381.99371207081 
552, 6406.93885498508 
553, 6424.16800962224 
554, 6443.25060570449 
555, 6457.97934287498 
556, 6451.29820770645 
557, 6414.36223740987 
558, 6356.20684483271 
559, 6305.13376820978 
560, 6280.35468064603 
561, 6290.5075656832 
562, 6319.28685809396 
563, 6335.83649390019 
564, 6325.39629206514 
565, 6293.85623679646 
566, 6250.49415020549 
567, 6206.06546905328 
568, 6167.23187250064 
569, 6129.74206030832 
570, 6081.10570238762 
571, 6034.33009633639 
572, 6016.25457912202 
573, 6020.8395713662 
574, 6019.54445684525 
575, 5993.31930523463 
576, 5942.5858009831 
577, 5893.8827038984 
578, 5866.42343025976 
579, 5871.10128197582 
580, 5897.42977205646 
581, 5947.38994557183 
582, 6009.54233241633 
583, 6060.18621369877 
584, 6091.36540088092 
585, 6088.22661853988 
586, 6048.88041871918 
587, 6001.80622577746 
588, 5943.89243811687 
589, 5864.89013364877 
590, 5764.3137454367 
591, 5725.64036191933 
592, 5749.25998848793 
593, 5796.67755660718 
594, 5792.3981158072 
595, 5761.1400511535 
596, 5716.7496616563 
597, 5669.04157328776 
598, 5617.20546932193 
599, 5556.15895525468 
600, 5490.29380998846 
601, 5430.80246058371 
602, 5384.24842266295 
603, 5356.39198717146 
604, 5347.31995564597 
605, 5350.49677690736 
606, 5335.97249658704 
607, 5302.27561912914 
608, 5260.04517138282 
609, 5217.27598362456 
610, 5178.76975589789 
611, 5145.0262324819 
612, 5112.57393466209 
613, 5079.42514450998 
614, 5042.29480450861 
615, 5002.11150764626 
616, 4969.05073409757 
617, 4946.04329410521 
618, 4940.59063113099 
619, 4957.14985826077 
620, 4975.04563928609 
621, 4973.30795516109 
622, 4944.53908314844 
623, 4897.99582263751 
624, 4846.95596332464 
625, 4799.68915248705 
626, 4759.59308931701 
627, 4721.85189700633 
628, 4685.73580849813 
629, 4651.7491281659 
630, 4623.09351163778 
631, 4617.85627032866 
632, 4626.81551885606 
633, 4640.11148223264 
634, 4653.51222651125 
635, 4664.44857475883 
636, 4670.66324205525 
637, 4670.91136585994 
638, 4666.84723446583 
639, 4653.28395855169 
640, 4626.70557416353 
641, 4586.92350697233 
642, 4553.54587183588 
643, 4531.59913443409 
644, 4516.72155919795 
645, 4491.9034152788 
646, 4459.63296701973 
647, 4421.47002149843 
648, 4380.97505620997 
649, 4348.24503142352 
650, 4320.33660862137 
651, 4301.59364704263 
652, 4302.59288518374 
653, 4286.73027836972 
654, 4234.53990204837 
655, 4143.73147851702 
656, 4035.21464459168 
657, 3955.29545620953 
658, 3951.07021746216 
659, 4045.99869153898 
660, 4143.60264801477 
661, 4197.67691373817 
662, 4204.9614823942 
663, 4206.93619486422 
664, 4199.64022446821 
665, 4189.4768065389 
666, 4182.63854070772 
667, 4181.87513630366 
668, 4178.03940569666 
669, 4170.67005031946 
670, 4163.56160990778 
671, 4151.91815181979 
672, 4139.22226862137 
673, 4130.10902915341 
674, 4129.46549730525 
675, 4131.63579313328 
676, 4132.16721266699 
677, 4129.59872501927 
678, 4131.2902551576 
679, 4129.79710241923 
680, 4124.9049746034 
681, 4120.48175878774 
682, 4115.60882357429 
683, 4102.23181304025 
684, 4063.32814399317 
685, 3971.30388138861 
686, 3811.95541475772 
687, 3598.77978818799 
688, 3382.58325693546 
689, 3289.16931092842 
690, 3350.94057818671 
691, 3508.7883285959 
692, 3649.71489395995 
693, 3776.15415678732 
694, 3866.81254390334 
695, 3917.57300449662 
696, 3949.45249149397 
697, 3973.82275252633 
698, 3986.59641157933 
699, 3982.2570963213 
700, 3968.17112713891 
701, 3953.47528220268 
702, 3946.39152516369 
703, 3953.33554104029 
704, 3975.51165646896 
705, 4003.17778320496 
706, 4026.33401259124 
707, 4036.92628431312 
708, 4043.41128370699 
709, 4047.25338930302 
710, 4049.29363257442 
711, 4054.89129637475 
712, 4057.35755400036 
713, 4053.5804758229 
714, 4041.85231299742 
715, 4017.00400520912 
716, 3963.72083990789 
717, 3875.77625467359 
718, 3760.00593970527 
719, 3658.84761236319 
720, 3615.79050760784 
721, 3650.73732419712 
722, 3734.34784993822 
723, 3793.28780581519 
724, 3801.700936646 
725, 3771.92259817957 
726, 3764.19784023964 
727, 3771.95363517078 
728, 3782.97703387172 
729, 3787.03475341848 
730, 3807.5597177139 
731, 3847.08701925514 
732, 3900.11420863929 
733, 3955.47592565297 
734, 4005.43886155335 
735, 4036.89649486624 
736, 4040.90746591068 
737, 4033.15781125758 
738, 4021.79847839802 
739, 4009.36262682469 
740, 3994.19786236248 
741, 3983.17175302097 
742, 3979.85214614777 
743, 3984.45345948409 
744, 3993.34908791494 
745, 3994.62995569458 
746, 3989.06347346374 
747, 3980.52577306932 
748, 3967.80591852427 
749, 3945.13048098835 
750, 3916.14694925223 
751, 3890.1042465694 
752, 3869.34142364377 
753, 3854.49960687245 
754, 3842.04865195714 
755, 3823.81651651453 
756, 3791.05707082418 
757, 3700.51481795126 
758, 3481.62001753843 
759, 3012.60599391357 
760, 2331.44596450833 
761, 1664.88131200007 
762, 1287.05119689071 
763, 1281.40665871525 
764, 1469.91837136702 
765, 1759.75584063627 
766, 2137.12539269189 
767, 2542.57547303809 
768, 2889.70814932301 
769, 3124.74215290728 
770, 3244.9372299356 
771, 3295.02430891717 
772, 3302.33875428896 
773, 3287.18433428813 
774, 3265.1895781295 
775, 3236.62141843822 
776, 3206.03084522241 
777, 3177.32366454965 
778, 3143.99805144237 
779, 3109.46763317265 
780, 3075.59468155639 
781, 3042.46063807267 
782, 3012.32880479891 
783, 2979.82422947778 
784, 2943.85741822197 
785, 2911.44227019836 
786, 2878.35949211247 
787, 2843.23261310611 
788, 2805.20661899037 
789, 2762.62630153781 
790, 2719.40774764755 
791, 2676.191661605 
792, 2632.78380393364 
793, 2591.73126713309 
794, 2556.67070819133 
795, 2531.17531216251 
796, 2517.00471330695 
797, 2503.76673198803 
798, 2486.60342518094 
799, 2463.85913993923 
800, 2436.9943205142 
801, 2406.92149727839 
802, 2380.17682144606 
803, 2359.63479025728 
804, 2337.64168517829 
805, 2317.76960671849 
806, 2300.22820661331 
807, 2283.10319285292 
808, 2261.09609312807 
809, 2236.2850903345 
810, 2209.32286149424 
811, 2179.68069645226 
812, 2146.4031332004 
813, 2102.83797078322 
814, 2046.97465013482 
815, 1982.71547497944 
816, 1921.76836938153 
817, 1875.16412033628 
818, 1848.3596011243 
819, 1839.27206580654 
820, 1837.94785040903 
821, 1833.61501941977 
822, 1821.51293775379 
823, 1809.00759522823 
824, 1802.48632217852 
825, 1806.36047742169 
826, 1818.11000635785 
827, 1817.96477104671 
828, 1802.19962285798 
829, 1778.55976463231 
830, 1759.87077560332 
831, 1748.8319376912 
832, 1739.93109488886 
833, 1730.41455130269 
834, 1721.18372248747 
835, 1719.27175350899 
836, 1717.33320527094 
837, 1710.73521879673 
838, 1700.34564482336 
839, 1686.31923627405 
840, 1668.85256964978 
841, 1649.10249441037 
842, 1629.67739584665 
843, 1607.22582381313 
844, 1584.00025761221 
845, 1562.15103949271 
846, 1540.51694957807 
847, 1514.10500737889 
848, 1482.36716181545 
849, 1447.02743504343 
850, 1410.87049094952 
851, 1373.17116640581 
852, 1334.90510845029 
853, 1298.48902048726 
854, 1268.48107585332 
855, 1243.26269266625 
856, 1226.66410899473 
857, 1223.68007797212 
858, 1225.82181870283 
859, 1217.82711545861 
860, 1197.38982713729 
861, 1173.83107645156 
862, 1148.90600337289 
863, 1119.82280166211 
864, 1085.97864343032 
865, 1050.23456257126 
866, 1016.64247803567 
867, 987.141020482143 
868, 964.240605533682 
869, 951.478225199845 
870, 942.074674530474 
871, 929.448271716408 
872, 910.999886390355 
873, 890.744279122336 
874, 869.753980869491 
875, 848.592403066799 
876, 827.388633916757 
877, 805.825998045295 
878, 786.327181010058 
879, 767.921468044711 
880, 749.171200024247 
881, 730.471014618788 
882, 712.274242857154 
883, 695.199266358699 
884, 679.600570115327 
885, 665.269529015198 
886, 648.544505026782 
887, 631.324606706899 
888, 616.626739898966 
889, 601.999440062143 
890, 587.34455773516 
891, 572.907013248985 
892, 558.25499322621 
893, 539.28548744869 
894, 520.153326977511 
895, 500.885895758625 
896, 479.977220951292 
897, 460.949757912745 
898, 441.518336289126 
899, 424.118895271271 
900, 412.786986131165 
901, 403.411886302199 
902, 400.080226912398 
903, 399.1263331614 
904, 393.664947069849 
905, 390.140285608456 
906, 385.905039437781 
907, 378.367812946214 
908, 366.687352267796 
909, 356.190293076406 
910, 348.250405176342 
911, 341.972737452265 
912, 335.688401388006 
913, 332.499801002267 
914, 329.099098978064 
915, 324.187214240202 
916, 318.946690740385 
917, 317.225131010559 
918, 315.821173055564 
919, 313.295701852962 
920, 310.307612739259 
921, 308.848943901523 
922, 305.941965441133 
923, 301.158882280497 
924, 295.775467288154 
925, 287.852108853341 
926, 278.236531688595 
927, 267.583719603923 
928, 255.805277468011 
929, 240.496608313215 
930, 223.528079892434 
931, 206.620624375158 
932, 190.743219711272 
933, 174.631979371033 
934, 161.844572671071 
935, 153.341486630208 
936, 148.243828379807 
937, 145.982593233853 
938, 147.428221643588 
939, 149.663790705728 
940, 149.398158998415 
941, 150.099142841454 
942, 149.060903565358 
943, 146.953563925104 
944, 145.015504700699 
945, 140.41486111728 
946, 135.523040088419 
947, 132.544222813085 
948, 132.155935773541 
949, 131.33663922283 
950, 129.543913539675 
951, 127.434515670335 
952, 125.975655895964 
953, 125.638469706581 
954, 123.759509547599 
955, 121.680862351898 
956, 120.714162764782 
957, 119.768273026489 
958, 117.758776982574 
959, 115.858913020851 
960, 114.590673505289 
961, 112.696130411543 
962, 110.750750858675 
963, 109.609613970591 
964, 108.560005702969 
965, 105.508330929448 
966, 103.373628945059 
967, 103.327240665392 
968, 103.453988349229 
969, 100.182053546913 
970, 95.7302518768261 
971, 92.1162070583285 
972, 89.6508814994005 
973, 87.3860783045173 
974, 84.7688188930922 
975, 81.8086272155714 
976, 78.5655786306753 
977, 75.1146702844014 
978, 71.2985833843574 
979, 69.6103915191858 
980, 67.9493009226586 
981, 64.2138180172339 
982, 60.3478847073298 
983, 59.1172234911599 
984, 58.2643281831762 
985, 56.1514195281388 
986, 54.3415190157288 
987, 51.1743956603782 
988, 48.6058846288037 
989, 47.5710136929638 
990, 46.935914971428 
991, 44.1340844325511 
992, 42.8798299831278 
993, 41.7593481980853 
994, 37.3962629599461 
995, 37.3324448094546 
996, 36.2562189730153 
997, 33.5410746433468 
998, 31.2064711705449 
999, 31.2077117554001 
1000, 30.05809856252 
1001, 152.58382931714 
1002, 151.221651640648 
1003, 156.93226058847 
1004, 159.438849617712 
1005, 150.563443091165 
1006, 144.734971676291 
1007, 141.051790757821 
1008, 136.124449937178 
1009, 131.725096704791 
1010, 126.496391110396 
1011, 124.853852016566 
1012, 126.838946550688 
1013, 123.691583232293 
1014, 120.860374884802 
1015, 120.236060557517 
1016, 113.319267804097 
1017, 107.819195140216 
1018, 108.039116422216 
1019, 112.104613621275 
1020, 114.093190331006 
1021, 114.561338600894 
1022, 115.720285370671 
1023, 117.897895856456 
1024, 112.352038167244 
1025, 110.170440376852 
1026, 114.052707281126 
1027, 116.144445090293 
1028, 121.720711096756 
1029, 126.48719619985 
1030, 126.592747144305 
1031, 128.586399307021 
1032, 127.013062198094 
1033, 121.001581804987 
1034, 121.197805729428 
1035, 122.49246489714 
1036, 124.934555223977 
1037, 125.68404130527 
1038, 127.997745101922 
1039, 130.750447257119 
1040, 130.803799676484 
1041, 128.358823770916 
1042, 132.62799289059 
1043, 133.615033445808 
1044, 131.015750594934 
1045, 135.75575883354 
1046, 138.694572053844 
1047, 141.71953709904 
1048, 146.48654086526 
1049, 149.41563826229 
1050, 147.651923065044 
1051, 150.376443894071 
1052, 148.979929402521 
1053, 146.644340251728 
1054, 148.86082982554 
1055, 148.5432685243 
1056, 153.029346282824 
1057, 164.06480690535 
1058, 169.979417289558 
1059, 170.874166185896 
1060, 173.016263709258 
1061, 167.394717064039 
1062, 170.196849251825 
1063, 177.227412459547 
1064, 188.150656366962 
1065, 196.627713431022 
1066, 204.190013466281 
1067, 209.607682503452 
1068, 213.702545364753 
1069, 223.666608050022 
1070, 234.492282065025 
1071, 238.960029455648 
1072, 245.899534089839 
1073, 253.583492788508 
1074, 259.480620339011 
1075, 265.360854270179 
1076, 272.753895847555 
1077, 282.608604534584 
1078, 287.876858392293 
1079, 286.092679323652 
1080, 289.546535753081 
1081, 293.503702948814 
1082, 295.578419898344 
1083, 299.731163876268 
1084, 307.960822391453 
1085, 313.595191401235 
1086, 316.451186952007 
1087, 318.234367914996 
1088, 320.535996499673 
1089, 319.147312985595 
1090, 320.656829255012 
1091, 326.091002880861 
1092, 326.390035763416 
1093, 324.671052529289 
1094, 320.19846275927 
1095, 313.871424636127 
1096, 314.449741199446 
1097, 313.661569234815 
1098, 308.229046231855 
1099, 308.415501689555 
1100, 309.260397932794 
1101, 310.101267561756 
1102, 317.750944295337 
1103, 320.51740818773 
1104, 321.034346923896 
1105, 317.760755794032 
1106, 315.952029468841 
1107, 315.069664693331 
1108, 309.908664302577 
1109, 300.475056620725 
1110, 288.544447934802 
1111, 273.229437836934 
1112, 261.90393560392 
1113, 251.11904774464 
1114, 240.563509798005 
1115, 234.033509084175 
1116, 223.457817428999 
1117, 210.190305444996 
1118, 199.10381429789 
1119, 189.148138209809 
1120, 172.735287892106 
1121, 166.612310298195 
1122, 158.274895963678 
1123, 146.266426220528 
1124, 143.886023216657 
1125, 141.175758731096 
1126, 137.95370177392 
1127, 137.091689900478 
1128, 141.556309968443 
1129, 143.277150930398 
1130, 146.962515113404 
1131, 145.696153330146 
1132, 137.571761743162 
1133, 138.616345084656 
1134, 141.573023312767 
1135, 143.317860858258 
1136, 153.265808003212 
1137, 159.917357885679 
1138, 162.488586147823 
1139, 163.089358281982 
1140, 165.707819485258 
1141, 171.754341447233 
1142, 173.518260088556 
1143, 173.83439719209 
1144, 171.934521747484 
1145, 164.126170541749 
1146, 161.865662694895 
1147, 160.415537485449 
1148, 160.306871908182 
1149, 165.568323274241 
1150, 166.079394237237 
1151, 166.800606849198 
1152, 170.814003841442 
1153, 174.224068730781 
1154, 178.489794072131 
1155, 183.899139049199 
1156, 191.336378547944 
1157, 194.737394808739 
1158, 199.86707516241 
1159, 200.242126325271 
1160, 192.436268897895 
1161, 191.592070237784 
1162, 191.619334641474 
1163, 191.621827223778 
1164, 195.017231558731 
1165, 199.480222233358 
1166, 195.507736867744 
1167, 191.672877898036 
1168, 189.873184367769 
1169, 187.272771218393 
1170, 183.665033653907 
1171, 182.922484672897 
1172, 178.551252389009 
1173, 170.043422276697 
1174, 163.314976275657 
1175, 153.727445404849 
1176, 148.572731344355 
1177, 145.749054174807 
