Wavelength,0212202100032.asd
350, 3741.25574251526 
351, 3933.33674826264 
352, 4109.69874942458 
353, 4258.93737781898 
354, 4408.61078651666 
355, 4566.81109741777 
356, 4732.58577382526 
357, 4895.60561369773 
358, 5065.46071240421 
359, 5249.03250402505 
360, 5454.34466543829 
361, 5702.3269853091 
362, 5982.84601224015 
363, 6283.58632222684 
364, 6592.92941135058 
365, 6906.00538741562 
366, 7204.3452768489 
367, 7464.28704350508 
368, 7657.88108641217 
369, 7771.75374024072 
370, 7813.48236435781 
371, 7805.33209172792 
372, 7779.63464949385 
373, 7773.03430858951 
374, 7790.49088672331 
375, 7813.82459753872 
376, 7836.70041753385 
377, 7850.27447862632 
378, 7835.62152358067 
379, 7761.6133033438 
380, 7669.45695102757 
381, 7566.9205189948 
382, 7451.58358966561 
383, 7314.64282389787 
384, 7174.98652540674 
385, 7082.06623022978 
386, 7095.53318021353 
387, 7247.36787058633 
388, 7451.38141780726 
389, 7624.84842343508 
390, 7709.16888224054 
391, 7804.48881053124 
392, 7893.19089968044 
393, 7958.83263493304 
394, 8027.15597083532 
395, 8210.58666941455 
396, 8558.62479727946 
397, 9086.47543289367 
398, 9806.72392476307 
399, 10624.160265395 
400, 11464.3815176225 
401, 12279.093678232 
402, 13045.1647299301 
403, 13677.5844101311 
404, 14141.6275718592 
405, 14504.5865089363 
406, 14793.6404767696 
407, 15054.8543426316 
408, 15343.7133171784 
409, 15732.3652755096 
410, 16195.6405129357 
411, 16705.329159081 
412, 17233.3862937055 
413, 17759.8271152068 
414, 18278.0718764327 
415, 18773.5442797433 
416, 19211.3360311151 
417, 19633.915838298 
418, 20067.076323787 
419, 20512.7303209677 
420, 20901.4280359823 
421, 21297.1380958075 
422, 21729.8554236518 
423, 22192.5179384033 
424, 22614.6390164477 
425, 22945.7455195501 
426, 23139.1143442524 
427, 23141.3702699786 
428, 23060.4974422284 
429, 23098.2620308063 
430, 23405.9136059574 
431, 23833.7672231616 
432, 24405.5358003232 
433, 25245.5537109836 
434, 26494.7544405693 
435, 27781.3702603458 
436, 28763.8126897971 
437, 29387.1143365135 
438, 30049.3560997105 
439, 30724.3195898397 
440, 31363.7609402131 
441, 31953.295854423 
442, 32702.8471035567 
443, 33483.2219212505 
444, 34198.2415154183 
445, 34792.3905638338 
446, 35265.4493887701 
447, 35695.9707809032 
448, 36160.6972359858 
449, 36722.6326737541 
450, 37182.040300407 
451, 37421.246618466 
452, 37406.9332025213 
453, 37310.682819435 
454, 37107.4807688421 
455, 36853.0944360622 
456, 36676.4669048992 
457, 36637.3557612051 
458, 36653.0839104278 
459, 36634.6388483545 
460, 36540.6825756266 
461, 36399.3706720744 
462, 36245.2951333366 
463, 36094.0937536213 
464, 35852.1308191329 
465, 35482.3055702121 
466, 35031.4254906867 
467, 34624.5889423077 
468, 34276.5626656843 
469, 34020.2641183561 
470, 33872.8701355953 
471, 33825.6538341058 
472, 33796.1937743491 
473, 33793.6821210278 
474, 33852.0343874188 
475, 33847.4299917791 
476, 33820.0502391971 
477, 33809.3197518768 
478, 33833.9597486946 
479, 33951.749022044 
480, 34106.9252757149 
481, 34206.8770351755 
482, 34168.8498584149 
483, 33897.5872558447 
484, 33344.1749150728 
485, 32536.7266015179 
486, 31776.9137231872 
487, 31252.3816048723 
488, 31113.8805052371 
489, 31501.6251115404 
490, 32084.5834743774 
491, 32553.7667825523 
492, 32719.4329932227 
493, 32783.9599521219 
494, 32883.6274387864 
495, 33076.3037899662 
496, 33332.5209069838 
497, 33409.7933100564 
498, 33312.4921609391 
499, 33098.6924106372 
500, 32818.7111746665 
501, 32615.445732016 
502, 32545.905061073 
503, 32632.6390375933 
504, 32958.3143803958 
505, 33393.2300680692 
506, 33821.2383017141 
507, 34161.5611736703 
508, 34417.879778849 
509, 34620.0036418857 
510, 34813.0575185127 
511, 35073.5903947472 
512, 35248.8566467693 
513, 35274.4406852809 
514, 35141.2858029539 
515, 34844.0156145589 
516, 34446.5218236303 
517, 34064.7844197645 
518, 33864.2274371911 
519, 34181.0612694293 
520, 35035.0835120747 
521, 36217.1216685149 
522, 37183.2484586883 
523, 37900.6455409466 
524, 38405.3065012714 
525, 38776.6312605251 
526, 38930.568682337 
527, 38997.4945620021 
528, 39221.0738704668 
529, 40039.1319022906 
530, 41082.55885822 
531, 41940.6033931264 
532, 42290.0994883891 
533, 42408.3316928342 
534, 42606.8576255302 
535, 43047.1165570497 
536, 43707.0364489776 
537, 44165.5979329639 
538, 44367.5699750641 
539, 44390.9361081886 
540, 44377.2264401267 
541, 44424.4260504533 
542, 44667.3651966114 
543, 45209.1243955053 
544, 45816.1889463813 
545, 46336.6116107619 
546, 46692.49591296 
547, 46895.5998426718 
548, 47033.1279912449 
549, 47198.5138454283 
550, 47447.4200900052 
551, 47701.7117491654 
552, 47894.5857001179 
553, 48034.8910486287 
554, 48189.160968223 
555, 48308.890843728 
556, 48265.4709096316 
557, 47990.5687163352 
558, 47542.0478586323 
559, 47172.1552340189 
560, 47020.9450793587 
561, 47129.1464546865 
562, 47361.2132339314 
563, 47492.2877460879 
564, 47418.4545165634 
565, 47188.3748055488 
566, 46862.8579764766 
567, 46541.2521585803 
568, 46282.0500534025 
569, 46009.8185400902 
570, 45645.2529349041 
571, 45300.5331622246 
572, 45189.9955471693 
573, 45265.8098356289 
574, 45275.0405907914 
575, 45063.0813367801 
576, 44672.7433834747 
577, 44326.9220411702 
578, 44150.7918703312 
579, 44201.8327525237 
580, 44434.9386963052 
581, 44844.7243582116 
582, 45337.5401167317 
583, 45740.9736397452 
584, 45991.5292679297 
585, 45972.8177072954 
586, 45673.0837558862 
587, 45325.5814685852 
588, 44907.4113997446 
589, 44328.8881271463 
590, 43580.6135932188 
591, 43382.8307598683 
592, 43641.9461690059 
593, 44015.2319228585 
594, 43959.3187765183 
595, 43716.9244192258 
596, 43394.4478094271 
597, 43050.9799524644 
598, 42670.1193964518 
599, 42207.6400726638 
600, 41707.9690465054 
601, 41275.6852413008 
602, 40938.5139805858 
603, 40764.0220274959 
604, 40751.6446187235 
605, 40794.2813563176 
606, 40695.4157518521 
607, 40456.4037949336 
608, 40163.3081325409 
609, 39876.0183009073 
610, 39603.9913456157 
611, 39360.3410500128 
612, 39159.9654207287 
613, 38943.6173239233 
614, 38686.6614347302 
615, 38405.8804435843 
616, 38189.115784024 
617, 38053.6480528113 
618, 38062.553489325 
619, 38253.4208224931 
620, 38426.9283994855 
621, 38440.0260137244 
622, 38248.4475947558 
623, 37922.0263199575 
624, 37562.9186246393 
625, 37228.7677781453 
626, 36946.7196800111 
627, 36710.9717684695 
628, 36470.3671149632 
629, 36232.138628841 
630, 36053.8475777222 
631, 36067.2811642797 
632, 36188.4669073069 
633, 36338.8687664917 
634, 36503.2221912988 
635, 36623.6008186417 
636, 36703.2412093638 
637, 36760.0565338465 
638, 36779.2331502073 
639, 36717.7977060392 
640, 36544.9571627678 
641, 36257.6868095383 
642, 36046.1347798817 
643, 35929.9614579105 
644, 35859.3823440349 
645, 35716.961986064 
646, 35497.7149090369 
647, 35229.8319082861 
648, 34962.9170589096 
649, 34737.537166181 
650, 34549.9597366951 
651, 34443.6201646042 
652, 34496.5695911768 
653, 34413.4860912699 
654, 34017.5942947818 
655, 33282.1136664551 
656, 32399.6733346685 
657, 31776.5964515949 
658, 31818.5497823344 
659, 32709.3026688506 
660, 33511.517884552 
661, 33945.1045454485 
662, 34031.8182928015 
663, 34073.2845193453 
664, 34032.8080390281 
665, 33976.328749759 
666, 33959.0710670591 
667, 33964.9602614617 
668, 33952.2978450951 
669, 33922.3311310377 
670, 33894.5301085757 
671, 33820.2891810674 
672, 33734.6012109965 
673, 33683.7336431078 
674, 33715.7751004692 
675, 33760.1868401795 
676, 33790.2745489243 
677, 33801.7538363002 
678, 33821.3747822677 
679, 33830.3314511714 
680, 33825.301386941 
681, 33811.3119086967 
682, 33790.2522368395 
683, 33713.9580752154 
684, 33436.1835104805 
685, 32687.7209511143 
686, 31355.6563874432 
687, 29537.6802344891 
688, 27686.7118358984 
689, 27052.1033725007 
690, 27704.8090875295 
691, 29097.8705102623 
692, 30333.1422241008 
693, 31417.0992327497 
694, 32201.7976286835 
695, 32667.7874231717 
696, 32976.2628266881 
697, 33224.812235609 
698, 33380.3007962725 
699, 33395.9356170637 
700, 33326.9920091056 
701, 33255.8524356441 
702, 33253.2328157705 
703, 33372.8333435776 
704, 33634.7085468508 
705, 33936.6350239952 
706, 34184.7778284232 
707, 34321.5583830313 
708, 34432.8756593835 
709, 34533.8704563595 
710, 34623.348567541 
711, 34716.7872098795 
712, 34776.4361069969 
713, 34792.8074594279 
714, 34762.3703824751 
715, 34620.984660118 
716, 34233.2758192364 
717, 33534.739487723 
718, 32562.8817503907 
719, 31750.9933186515 
720, 31467.4919085778 
721, 31854.8825714168 
722, 32628.4965904014 
723, 33144.4179975783 
724, 33213.5189157118 
725, 32990.0371255519 
726, 32969.3537640849 
727, 33069.2173032107 
728, 33182.3254367912 
729, 33243.7112299284 
730, 33440.2098016757 
731, 33803.7998362943 
732, 34295.0126644853 
733, 34813.3357013731 
734, 35250.6436479241 
735, 35518.6302883488 
736, 35579.5129081215 
737, 35532.9333198931 
738, 35465.6556565727 
739, 35395.1868967052 
740, 35287.4704133696 
741, 35244.0145767225 
742, 35277.5340356932 
743, 35375.2786918924 
744, 35514.3097001478 
745, 35601.6974852443 
746, 35633.6077126481 
747, 35630.0138983653 
748, 35579.2826150521 
749, 35455.6429984901 
750, 35288.1176140792 
751, 35141.7092170418 
752, 35065.8292517469 
753, 35045.3628496807 
754, 35041.7316829765 
755, 34997.2721896477 
756, 34821.6461287371 
757, 34096.2340422952 
758, 32129.9572643085 
759, 27706.9377348419 
760, 21270.3555387112 
761, 15096.9179743316 
762, 11850.8395857819 
763, 12043.0737792156 
764, 13993.4389730561 
765, 16892.964362503 
766, 20706.5726041597 
767, 24786.4017018627 
768, 28267.6629393579 
769, 30640.6050334097 
770, 31937.7427166212 
771, 32559.2527474208 
772, 32787.5712558751 
773, 32830.0232891539 
774, 32795.3518308945 
775, 32703.0760715464 
776, 32589.6384019647 
777, 32480.2964622144 
778, 32332.8227932732 
779, 32162.0263247975 
780, 31994.1154673137 
781, 31855.5829054897 
782, 31705.2400835062 
783, 31527.372193691 
784, 31327.382348755 
785, 31135.30184167 
786, 30947.5250860851 
787, 30731.8062342935 
788, 30462.0280665534 
789, 30149.0152139377 
790, 29812.8710511572 
791, 29461.3597777925 
792, 29100.9600830074 
793, 28751.8493064699 
794, 28470.7996690689 
795, 28290.0646203522 
796, 28207.8331530234 
797, 28145.103454443 
798, 28030.6305643973 
799, 27833.0698655192 
800, 27571.4126931465 
801, 27289.6322523465 
802, 27027.3163079916 
803, 26799.2176764394 
804, 26572.1094546766 
805, 26371.5780893014 
806, 26185.9082993705 
807, 25985.8412777389 
808, 25731.7291988624 
809, 25433.0797732641 
810, 25110.7612531263 
811, 24779.0688468962 
812, 24387.8758222887 
813, 23872.98233911 
814, 23221.2908184934 
815, 22480.825124138 
816, 21787.5739869158 
817, 21231.2463577351 
818, 20870.523144078 
819, 20731.5920508001 
820, 20671.751004539 
821, 20583.3808745531 
822, 20421.7619156017 
823, 20245.5440304223 
824, 20127.7654888455 
825, 20131.4296987433 
826, 20233.7843126549 
827, 20169.8305426697 
828, 19949.3795063167 
829, 19662.8179480303 
830, 19429.8756696611 
831, 19263.13879272 
832, 19129.5063404817 
833, 19015.3608779776 
834, 18927.4053592828 
835, 18873.6448783452 
836, 18837.3305676314 
837, 18786.8093859059 
838, 18681.4078141515 
839, 18533.4037622424 
840, 18357.1880812898 
841, 18166.0487909345 
842, 17968.4154081166 
843, 17763.5873440701 
844, 17559.5755228331 
845, 17361.7299075884 
846, 17169.223878554 
847, 16932.3803201367 
848, 16648.0575877363 
849, 16334.2084311 
850, 16016.905027531 
851, 15649.1933868556 
852, 15271.8309654955 
853, 14958.1967814863 
854, 14718.4829266499 
855, 14524.989831555 
856, 14434.7282909476 
857, 14523.7111846916 
858, 14656.4227720951 
859, 14679.2207407579 
860, 14565.0613470276 
861, 14398.7804840896 
862, 14201.4026868721 
863, 13948.2280482993 
864, 13643.660504251 
865, 13332.063920768 
866, 13037.6490179784 
867, 12788.9823516555 
868, 12625.3232981034 
869, 12595.3453249545 
870, 12619.3480454786 
871, 12598.4271802264 
872, 12486.1767075689 
873, 12332.6426373956 
874, 12169.8568901812 
875, 12006.2637539508 
876, 11842.9761577601 
877, 11684.0178849364 
878, 11531.6262100347 
879, 11381.111399492 
880, 11227.891941952 
881, 11073.8981289688 
882, 10921.4243106569 
883, 10776.9230098061 
884, 10643.4554039855 
885, 10511.1412903503 
886, 10366.4670782591 
887, 10213.6286809906 
888, 10063.6867081173 
889, 9920.75550923413 
890, 9778.72717025164 
891, 9622.22348300493 
892, 9434.35209844889 
893, 9210.8725676447 
894, 8955.32702325757 
895, 8673.39758726965 
896, 8373.99824554741 
897, 8071.10943290563 
898, 7783.66585194901 
899, 7541.47835070286 
900, 7372.0582736826 
901, 7266.13671053948 
902, 7210.63796369864 
903, 7182.32246843384 
904, 7153.57734837112 
905, 7109.57936379065 
906, 7032.84346540911 
907, 6909.76017399567 
908, 6739.1225677345 
909, 6559.32444017621 
910, 6408.29359094955 
911, 6297.66172881383 
912, 6216.15906437984 
913, 6148.44091816376 
914, 6082.03899106615 
915, 6014.0995789952 
916, 5950.30603607583 
917, 5901.21091327667 
918, 5859.65151508391 
919, 5819.93843272418 
920, 5779.03716709367 
921, 5736.42060121111 
922, 5680.80370936969 
923, 5602.55679019839 
924, 5496.03256762427 
925, 5364.12455110437 
926, 5208.10148164527 
927, 5021.15767220575 
928, 4793.38924312444 
929, 4527.33660612096 
930, 4226.79325989049 
931, 3906.78167869459 
932, 3592.0763035256 
933, 3313.8342536074 
934, 3091.18567464188 
935, 2937.7967748049 
936, 2857.16926033956 
937, 2831.86049289256 
938, 2844.93540562602 
939, 2873.45277231228 
940, 2897.2074662479 
941, 2916.59960076206 
942, 2918.04276888424 
943, 2889.89772852204 
944, 2830.15409770991 
945, 2758.08998757056 
946, 2697.2420927032 
947, 2658.64663748187 
948, 2641.63505522828 
949, 2634.0484971169 
950, 2624.01739996588 
951, 2609.98596623953 
952, 2594.18499203138 
953, 2576.99680623371 
954, 2557.92222347299 
955, 2541.09300151046 
956, 2529.13497458868 
957, 2519.33174295988 
958, 2508.92305719522 
959, 2500.27432830092 
960, 2495.27177756648 
961, 2492.82716069942 
962, 2489.47398079832 
963, 2487.85621496368 
964, 2488.37002057747 
965, 2487.39467344029 
966, 2483.24785204668 
967, 2474.60247088737 
968, 2460.40098359361 
969, 2440.52312384624 
970, 2419.71495378481 
971, 2394.12915067133 
972, 2360.64586013452 
973, 2318.55384238819 
974, 2271.58036709074 
975, 2221.56592371753 
976, 2173.15930034504 
977, 2130.79451222085 
978, 2093.90464677497 
979, 2062.14303072076 
980, 2033.9923981575 
981, 2007.0456946693 
982, 1978.16326864045 
983, 1949.18205756157 
984, 1919.76753475511 
985, 1888.94262018194 
986, 1855.69361767266 
987, 1819.19157317956 
988, 1782.35136627781 
989, 1745.61469585861 
990, 1706.54479446885 
991, 1667.42677270942 
992, 1629.6940850577 
993, 1592.93240353161 
994, 1555.74040896514 
995, 1518.43118706964 
996, 1481.04590772341 
997, 1442.83989138783 
998, 1403.88191474758 
999, 1367.4199134873 
1000, 1332.73937463127 
1001, 8377.57667898903 
1002, 8343.41487956061 
1003, 8307.03860889944 
1004, 8284.66485368389 
1005, 8275.17225432416 
1006, 8272.99297884309 
1007, 8283.87629079488 
1008, 8303.31344957981 
1009, 8324.656182023 
1010, 8353.77579750166 
1011, 8383.70797719121 
1012, 8418.77194989849 
1013, 8450.53239351109 
1014, 8484.2209984798 
1015, 8515.13566249813 
1016, 8544.16921019787 
1017, 8579.38018595256 
1018, 8616.39192192175 
1019, 8653.73076611108 
1020, 8692.32584014954 
1021, 8734.45471071077 
1022, 8779.25168206076 
1023, 8825.54101561722 
1024, 8875.57949193702 
1025, 8929.97622647618 
1026, 8982.276137195 
1027, 9035.07220760569 
1028, 9088.3854399044 
1029, 9136.27143654303 
1030, 9181.94206967714 
1031, 9220.31065070302 
1032, 9252.08433758615 
1033, 9295.80589798865 
1034, 9338.76451128024 
1035, 9376.95440911509 
1036, 9414.5641559352 
1037, 9457.49372208101 
1038, 9489.57891542418 
1039, 9516.81423086805 
1040, 9547.01819810959 
1041, 9574.40132879539 
1042, 9595.67203220238 
1043, 9616.25608104846 
1044, 9639.82458703826 
1045, 9662.55612810528 
1046, 9690.28815286904 
1047, 9720.56955163729 
1048, 9755.25197595852 
1049, 9788.54673082782 
1050, 9821.84859269981 
1051, 9857.2228580633 
1052, 9892.80485503626 
1053, 9923.11642155931 
1054, 9955.95808935493 
1055, 9991.73081069832 
1056, 10023.884835125 
1057, 10064.6213395779 
1058, 10109.3862085532 
1059, 10161.8772820773 
1060, 10223.3197952951 
1061, 10291.0043744046 
1062, 10366.5106518187 
1063, 10452.8666862784 
1064, 10543.3865388157 
1065, 10639.5249988136 
1066, 10748.5566302577 
1067, 10854.0774642438 
1068, 10965.3045892127 
1069, 11087.6892930762 
1070, 11218.8650152528 
1071, 11372.120397911 
1072, 11526.4276957427 
1073, 11675.66971329 
1074, 11833.3192505537 
1075, 11974.6268924849 
1076, 12107.0285723557 
1077, 12237.2149349623 
1078, 12352.864733277 
1079, 12457.0491228427 
1080, 12548.4189387188 
1081, 12627.8827671654 
1082, 12704.2437255621 
1083, 12778.4120787135 
1084, 12854.233875964 
1085, 12928.6116558662 
1086, 12994.6251810798 
1087, 13058.3759833617 
1088, 13109.4783270061 
1089, 13159.0562135776 
1090, 13189.0001965594 
1091, 13205.350088335 
1092, 13209.4690001902 
1093, 13198.0752269058 
1094, 13173.881527906 
1095, 13146.0386047755 
1096, 13118.343119446 
1097, 13087.2110138021 
1098, 13053.1909089807 
1099, 13024.5460193563 
1100, 12999.3997194952 
1101, 12969.2564956685 
1102, 12948.5095872704 
1103, 12910.204612995 
1104, 12870.3743093429 
1105, 12810.7950560623 
1106, 12738.1243661252 
1107, 12635.1717407246 
1108, 12486.2935690448 
1109, 12291.6754223364 
1110, 12019.4013629127 
1111, 11686.2139463911 
1112, 11300.8224914764 
1113, 10828.7508801013 
1114, 10361.5950924159 
1115, 9820.35207167443 
1116, 9333.61118486547 
1117, 8803.92770611412 
1118, 8361.09971852063 
1119, 7960.00661042681 
1120, 7595.43610712427 
1121, 7290.76046370472 
1122, 7045.21405006381 
1123, 6866.92490886222 
1124, 6743.78317458001 
1125, 6689.30784119449 
1126, 6732.95037840085 
1127, 6767.93192171751 
1128, 6861.11355196477 
1129, 6948.62939295407 
1130, 7057.1810635127 
1131, 7170.11432002156 
1132, 7285.21896680805 
1133, 7430.47114016204 
1134, 7586.37750148847 
1135, 7761.63453349222 
1136, 8013.25634074345 
1137, 8268.62711125697 
1138, 8514.48924044776 
1139, 8742.61647585702 
1140, 8892.1822487601 
1141, 8991.11188087919 
1142, 9036.74942104029 
1143, 8999.41123948337 
1144, 8980.24795959615 
1145, 8855.17898925661 
1146, 8846.73878478339 
1147, 8840.4639503729 
1148, 8924.49122827457 
1149, 9090.22665020169 
1150, 9305.14920681536 
1151, 9586.14165160355 
1152, 9895.57142369992 
1153, 10214.8059526551 
1154, 10583.8999881211 
1155, 10924.6797073054 
1156, 11280.5187760096 
1157, 11613.1279039627 
1158, 11943.3090241015 
1159, 12250.6923322245 
1160, 12554.1161150454 
1161, 12822.418126197 
1162, 13074.2893413288 
1163, 13293.4501975965 
1164, 13483.1198598915 
1165, 13642.3978845357 
1166, 13773.4674484922 
1167, 13878.7327166991 
1168, 13959.5231292666 
1169, 14010.69742949 
1170, 14043.561829902 
1171, 14051.896155589 
1172, 14041.862774438 
1173, 14004.7702993688 
1174, 13959.4452208514 
1175, 13890.1200533299 
1176, 13819.688701793 
1177, 13734.125173289 
