Wavelength,0212202100140.asd
350, 2828.96486118837 
351, 2977.49914709778 
352, 3115.11774765261 
353, 3231.83341916481 
354, 3345.21559040756 
355, 3464.72114825946 
356, 3593.03455910571 
357, 3720.55115008924 
358, 3851.86742219985 
359, 3990.48202271526 
360, 4142.54659820979 
361, 4329.62523396405 
362, 4544.43060904472 
363, 4776.39619144708 
364, 5014.40193231979 
365, 5254.16266021768 
366, 5483.68758365306 
367, 5686.8443738586 
368, 5843.22150285209 
369, 5936.54452271378 
370, 5971.40028421825 
371, 5965.63212180471 
372, 5944.93205433436 
373, 5939.32254547123 
374, 5952.61577668155 
375, 5969.87240052528 
376, 5988.77582927778 
377, 6000.57036578121 
378, 5991.16426907469 
379, 5940.91204299588 
380, 5874.0428693155 
381, 5797.98105539914 
382, 5712.28928027325 
383, 5604.71112167973 
384, 5494.67642213222 
385, 5419.04041511211 
386, 5421.55738051105 
387, 5536.45005525829 
388, 5699.63414228182 
389, 5841.82972244711 
390, 5905.67124088934 
391, 5973.74338968594 
392, 6041.69173050529 
393, 6098.15720244427 
394, 6145.04440875177 
395, 6274.46254380602 
396, 6527.8668858597 
397, 6920.93838711052 
398, 7471.07704222526 
399, 8097.71825098486 
400, 8741.40789446745 
401, 9368.11451749803 
402, 9964.35317343683 
403, 10455.6097739847 
404, 10810.0602419557 
405, 11085.8314456458 
406, 11306.3938603616 
407, 11503.7644622873 
408, 11717.368581729 
409, 12009.7244149097 
410, 12361.602275849 
411, 12750.5014175844 
412, 13153.4194245625 
413, 13553.2892505967 
414, 13950.9094485963 
415, 14336.0214719925 
416, 14672.8918319127 
417, 14990.6777292346 
418, 15315.7736294243 
419, 15656.7507487208 
420, 15955.2620616753 
421, 16256.0919560553 
422, 16583.7747086959 
423, 16938.3155612374 
424, 17263.9235998187 
425, 17522.0346949947 
426, 17678.0587867428 
427, 17694.770442876 
428, 17631.2348760816 
429, 17647.2418396695 
430, 17871.9962704682 
431, 18196.6656267828 
432, 18623.5445033232 
433, 19249.4898433851 
434, 20198.0853124742 
435, 21201.7096068362 
436, 21970.223979564 
437, 22445.9907868465 
438, 22951.5818623469 
439, 23470.8734853396 
440, 23959.8991851705 
441, 24402.1406400079 
442, 24975.820326739 
443, 25579.1398069441 
444, 26132.6357153126 
445, 26587.3253171685 
446, 26953.4332225007 
447, 27283.1026690875 
448, 27633.3977524558 
449, 28067.21471124 
450, 28433.7494036751 
451, 28632.9512751356 
452, 28628.3065467843 
453, 28559.0120422463 
454, 28404.9074161879 
455, 28208.7534123154 
456, 28070.7137597419 
457, 28040.5970394464 
458, 28054.2131593619 
459, 28041.6327419379 
460, 27969.4812544101 
461, 27861.9382578135 
462, 27747.1356702913 
463, 27637.5751650303 
464, 27459.0671347347 
465, 27180.6082581461 
466, 26835.6524746469 
467, 26518.4383643229 
468, 26253.4964042355 
469, 26057.7653109422 
470, 25937.6118219984 
471, 25894.5585978512 
472, 25869.3735042191 
473, 25867.1182976151 
474, 25909.3673548854 
475, 25904.0791751279 
476, 25880.1074880669 
477, 25867.7619170499 
478, 25884.3963056087 
479, 25973.4335280941 
480, 26096.5312370667 
481, 26185.3829406355 
482, 26170.3666421684 
483, 25980.5134739593 
484, 25574.3735974479 
485, 24965.6336392648 
486, 24377.689528671 
487, 23963.8530682062 
488, 23846.357628432 
489, 24130.5671347027 
490, 24580.1614650927 
491, 24952.0455864299 
492, 25088.2464689116 
493, 25140.7788062775 
494, 25215.7060729209 
495, 25361.7722390008 
496, 25562.2825002887 
497, 25628.4746134538 
498, 25561.8229374585 
499, 25404.6584449296 
500, 25193.0288537295 
501, 25031.8364324956 
502, 24967.4551700498 
503, 25022.2967050851 
504, 25257.4355685544 
505, 25584.500509725 
506, 25916.7630114901 
507, 26184.4558400592 
508, 26390.8039049334 
509, 26553.5990890142 
510, 26704.4772071973 
511, 26906.7285147776 
512, 27048.3588727533 
513, 27078.4663496608 
514, 26985.227724143 
515, 26766.6884775304 
516, 26470.7637577933 
517, 26181.232691077 
518, 26014.1877167996 
519, 26239.3163918586 
520, 26878.1971718382 
521, 27775.7540460724 
522, 28523.2530739245 
523, 29081.560514944 
524, 29474.2366959053 
525, 29766.4120658343 
526, 29895.5442367381 
527, 29949.310844826 
528, 30108.25025393 
529, 30716.5844357816 
530, 31506.6015011854 
531, 32171.4870790628 
532, 32461.9437476086 
533, 32561.8098472286 
534, 32712.8060593028 
535, 33044.2595620251 
536, 33545.4298504006 
537, 33909.2586423251 
538, 34079.6186999015 
539, 34102.6075581524 
540, 34095.05234106 
541, 34127.4852820224 
542, 34303.5884273234 
543, 34706.7604821628 
544, 35169.2109332036 
545, 35574.0112628677 
546, 35856.846245326 
547, 36018.3578449686 
548, 36129.6754710292 
549, 36260.7411541166 
550, 36452.2416213641 
551, 36647.1552065764 
552, 36799.4441997191 
553, 36913.40401268 
554, 37031.8881700241 
555, 37125.7787885777 
556, 37098.0075420327 
557, 36894.7461569566 
558, 36555.8970808798 
559, 36268.1406974887 
560, 36139.8219108529 
561, 36207.83104518 
562, 36375.4682149268 
563, 36474.9435695841 
564, 36423.1510797183 
565, 36245.1887284192 
566, 35993.1882459496 
567, 35735.9173459336 
568, 35515.4199392472 
569, 35293.4988075299 
570, 35006.7139580654 
571, 34735.6929920848 
572, 34637.9280243551 
573, 34674.7406978463 
574, 34669.8123216969 
575, 34512.6505748589 
576, 34224.6962877968 
577, 33962.5009448634 
578, 33827.403500385 
579, 33873.6699552497 
580, 34063.0060103256 
581, 34382.9849964774 
582, 34766.7020285058 
583, 35097.6350208402 
584, 35307.0193737646 
585, 35308.3795220978 
586, 35091.4480503867 
587, 34812.9291269571 
588, 34463.6472449668 
589, 33991.4324260292 
590, 33401.4890041819 
591, 33194.0127379825 
592, 33356.964085322 
593, 33655.0481405276 
594, 33645.3440966636 
595, 33477.4245971264 
596, 33240.653490521 
597, 32996.794720565 
598, 32731.5481296137 
599, 32403.5569429219 
600, 32041.5742457288 
601, 31723.2006197513 
602, 31477.6082214755 
603, 31347.9557555265 
604, 31332.9274963901 
605, 31366.909100416 
606, 31301.6621314068 
607, 31130.3709085073 
608, 30910.1514940047 
609, 30695.375070906 
610, 30490.9049679299 
611, 30306.2679219447 
612, 30154.5557196575 
613, 29991.7659541887 
614, 29799.3029530883 
615, 29589.0831261495 
616, 29424.9189551998 
617, 29326.366175539 
618, 29332.6818271772 
619, 29463.2624442943 
620, 29603.5978581834 
621, 29623.0354981218 
622, 29479.6746524337 
623, 29241.8914944224 
624, 28968.1874773509 
625, 28706.1092452504 
626, 28481.5921114892 
627, 28278.9254352384 
628, 28076.8872653727 
629, 27886.2313908318 
630, 27748.0639983223 
631, 27768.1293865803 
632, 27877.1819524811 
633, 28009.9692479292 
634, 28151.3885935569 
635, 28262.5699095818 
636, 28341.4780285868 
637, 28396.4417920864 
638, 28420.5390261516 
639, 28384.036828423 
640, 28264.9105043357 
641, 28060.0080915931 
642, 27901.9492538076 
643, 27810.0180147242 
644, 27751.8321491455 
645, 27640.366414627 
646, 27463.1959054587 
647, 27239.2421484335 
648, 27010.0661738442 
649, 26825.7347768212 
650, 26687.919679001 
651, 26620.253329406 
652, 26661.1509482086 
653, 26607.650036693 
654, 26317.5595652574 
655, 25766.1576547706 
656, 25122.5063773857 
657, 24661.615141069 
658, 24675.6349500897 
659, 25312.2794896098 
660, 25958.1333647841 
661, 26332.5340408919 
662, 26415.5834058286 
663, 26456.1541766349 
664, 26432.6306964943 
665, 26392.8598874205 
666, 26378.0040205209 
667, 26387.3337449383 
668, 26381.3470988749 
669, 26360.0683272692 
670, 26341.1380350898 
671, 26288.3885458929 
672, 26227.47513161 
673, 26191.4163279887 
674, 26213.3145425073 
675, 26249.90066667 
676, 26277.8294058747 
677, 26289.1743558581 
678, 26307.0856107641 
679, 26316.7022928131 
680, 26315.9767755326 
681, 26309.2042659027 
682, 26292.9966784426 
683, 26234.6680164128 
684, 26018.5417407156 
685, 25422.0351387079 
686, 24361.4575813687 
687, 22936.8188573097 
688, 21499.741665046 
689, 20909.6414053721 
690, 21357.9005332592 
691, 22443.9327843928 
692, 23417.182910461 
693, 24262.4095067231 
694, 24872.9882602214 
695, 25244.892162934 
696, 25511.2294952749 
697, 25745.9085888324 
698, 25908.07904905 
699, 25944.1351196867 
700, 25884.0706560478 
701, 25825.1944163372 
702, 25835.1940055967 
703, 25952.2665144361 
704, 26178.4451431788 
705, 26438.6933873272 
706, 26661.0471769572 
707, 26793.6124266533 
708, 26905.3611927815 
709, 27006.2400858045 
710, 27093.0332039148 
711, 27176.3880110247 
712, 27235.0924581024 
713, 27254.6347480772 
714, 27216.0986307589 
715, 27064.3094237749 
716, 26675.9473358107 
717, 25999.5658324156 
718, 25085.5130468713 
719, 24328.1135330269 
720, 24052.1162349839 
721, 24380.0919788666 
722, 25062.0453081639 
723, 25530.7964967185 
724, 25593.57804101 
725, 25357.6986915161 
726, 25295.4179295474 
727, 25370.2023455427 
728, 25491.2336648567 
729, 25569.8969067649 
730, 25754.9601858674 
731, 26082.1400452896 
732, 26531.2448537423 
733, 27031.7365672689 
734, 27466.5378961583 
735, 27747.928990919 
736, 27838.3883386878 
737, 27824.3228346432 
738, 27795.1169148867 
739, 27771.9286035748 
740, 27721.8887261349 
741, 27717.9971468982 
742, 27769.4205425823 
743, 27866.4033580758 
744, 27990.6201506342 
745, 28076.0373177653 
746, 28115.9891135627 
747, 28122.611122137 
748, 28096.0261109702 
749, 28013.8662240042 
750, 27896.3910410642 
751, 27792.4372633417 
752, 27742.6943075053 
753, 27736.0880616914 
754, 27743.4714181607 
755, 27721.018870315 
756, 27592.7960851706 
757, 27020.9279538524 
758, 25463.7484844359 
759, 22000.3242342644 
760, 16911.3358899982 
761, 11929.4259656926 
762, 9144.05944196098 
763, 9140.65072282337 
764, 10627.1430163817 
765, 12945.2995148959 
766, 16015.046895447 
767, 19363.6903300426 
768, 22271.8968982751 
769, 24298.0019550846 
770, 25441.4565928517 
771, 26011.8115451516 
772, 26242.9483945395 
773, 26312.8592287719 
774, 26312.9842668735 
775, 26261.9097918937 
776, 26190.6163584497 
777, 26121.030792514 
778, 26025.3906080383 
779, 25907.3920726881 
780, 25787.9882585088 
781, 25695.4177991532 
782, 25592.5473028448 
783, 25466.7843906039 
784, 25320.8723954486 
785, 25174.2483974577 
786, 25025.6041525877 
787, 24849.8489457618 
788, 24626.6314904365 
789, 24363.9589195444 
790, 24086.2487279013 
791, 23805.7833324012 
792, 23530.2431632624 
793, 23269.8768439775 
794, 23060.7953447749 
795, 22923.0124409187 
796, 22854.2159687359 
797, 22802.8153487911 
798, 22715.7003326267 
799, 22565.1044881589 
800, 22356.9643732489 
801, 22125.6419332248 
802, 21910.3846157893 
803, 21729.5927327164 
804, 21556.5184365712 
805, 21409.6147449455 
806, 21274.0212163069 
807, 21120.3974994369 
808, 20915.1070463955 
809, 20661.8769640587 
810, 20376.4240247471 
811, 20070.0939882359 
812, 19696.6172624458 
813, 19205.674776396 
814, 18592.56618907 
815, 17906.521052404 
816, 17276.9746791469 
817, 16791.2870578154 
818, 16502.8651517525 
819, 16427.9806941139 
820, 16421.3524929284 
821, 16374.4126483386 
822, 16244.2532083134 
823, 16095.3761087197 
824, 15999.07237301 
825, 16020.5255505986 
826, 16143.1747589095 
827, 16117.3517163134 
828, 15942.0081773218 
829, 15701.3982055363 
830, 15513.4963871092 
831, 15396.2663858248 
832, 15315.5899509832 
833, 15253.9601136499 
834, 15212.6870827308 
835, 15198.3982406472 
836, 15197.3633380358 
837, 15182.1946355264 
838, 15116.6927759229 
839, 15013.0709569609 
840, 14885.7096255646 
841, 14745.3908856544 
842, 14594.4340921681 
843, 14438.0711269213 
844, 14284.3983155891 
845, 14137.1394336694 
846, 13992.6892106065 
847, 13811.8911758775 
848, 13590.8176945477 
849, 13343.1213157971 
850, 13093.01290161 
851, 12803.7496751995 
852, 12503.9348321681 
853, 12249.7111916924 
854, 12063.9212429842 
855, 11916.2372144304 
856, 11850.7652959057 
857, 11932.3073621882 
858, 12058.4360518754 
859, 12093.012840421 
860, 12012.1867295064 
861, 11891.6386038531 
862, 11742.1202139677 
863, 11547.4707608519 
864, 11310.9601916859 
865, 11063.0317172223 
866, 10830.0203133372 
867, 10633.3328023561 
868, 10506.0180705221 
869, 10494.3953732729 
870, 10527.1449763942 
871, 10523.1982670176 
872, 10444.7374453861 
873, 10331.2197213663 
874, 10207.1323386932 
875, 10082.6088881762 
876, 9959.81485419109 
877, 9835.87189975745 
878, 9717.76227491165 
879, 9603.03732769814 
880, 9486.82559787787 
881, 9366.00413088933 
882, 9246.3902507126 
883, 9133.94058672173 
884, 9030.41342428626 
885, 8926.26262459241 
886, 8812.64425557542 
887, 8690.85657849221 
888, 8567.69936729938 
889, 8451.01954960464 
890, 8334.30566426493 
891, 8201.71221649864 
892, 8035.86548589658 
893, 7832.26831207391 
894, 7594.01050740826 
895, 7328.11823350084 
896, 7045.92627516518 
897, 6764.05356007734 
898, 6497.02385230625 
899, 6275.57825884589 
900, 6130.45316515205 
901, 6048.78914751204 
902, 6016.04618661243 
903, 6007.54335270492 
904, 5994.91764711676 
905, 5965.66413511849 
906, 5902.8373450738 
907, 5794.17889363223 
908, 5639.40904625362 
909, 5472.25951828333 
910, 5331.76827979346 
911, 5231.60901529611 
912, 5162.1237308582 
913, 5105.0750680589 
914, 5049.99313099858 
915, 4994.89576736264 
916, 4945.60383286318 
917, 4915.85419988812 
918, 4894.61402043731 
919, 4874.40283621902 
920, 4852.47277556582 
921, 4827.96377352172 
922, 4790.75589055323 
923, 4729.72536713549 
924, 4636.43059980676 
925, 4515.06706963263 
926, 4367.56048492496 
927, 4189.63979223345 
928, 3974.58882660907 
929, 3725.01982094135 
930, 3443.20836896448 
931, 3143.87309275136 
932, 2851.82794546496 
933, 2595.69301729516 
934, 2394.06791698344 
935, 2258.5405850265 
936, 2190.71731093873 
937, 2175.94002040878 
938, 2196.2555193936 
939, 2230.05001170769 
940, 2259.02153268809 
941, 2281.88221563961 
942, 2291.04016023368 
943, 2274.31740173806 
944, 2226.32531262003 
945, 2165.38589285804 
946, 2115.32313243867 
947, 2086.44744756189 
948, 2077.38806995193 
949, 2076.08170161551 
950, 2074.94590985491 
951, 2071.44672628682 
952, 2065.67505355712 
953, 2057.88028449427 
954, 2050.00223299581 
955, 2042.85899569696 
956, 2037.39042617409 
957, 2035.33656830472 
958, 2036.89088259531 
959, 2039.34910883561 
960, 2042.51847728626 
961, 2050.61790602748 
962, 2059.68063438592 
963, 2071.91687851038 
964, 2086.69693494675 
965, 2099.15023137694 
966, 2109.26350805861 
967, 2115.42664718214 
968, 2116.34615986943 
969, 2111.59827289185 
970, 2103.18407151577 
971, 2089.29481910947 
972, 2067.51405793351 
973, 2036.72503553388 
974, 2001.31167511735 
975, 1962.9529740284 
976, 1925.81881873985 
977, 1894.15105581348 
978, 1868.43607535056 
979, 1849.18843116673 
980, 1834.08574345695 
981, 1819.5106042703 
982, 1801.78500913835 
983, 1785.81158866975 
984, 1767.99158709383 
985, 1746.04698709982 
986, 1723.12567436013 
987, 1696.13026964478 
988, 1668.83419386268 
989, 1641.47777041434 
990, 1610.21614381068 
991, 1579.87624407047 
992, 1550.06448896008 
993, 1519.48174520317 
994, 1487.43872827539 
995, 1457.11012087434 
996, 1424.909402063 
997, 1392.69970544509 
998, 1362.64705065975 
999, 1329.64727453925 
1000, 1297.25521828835 
1001, 8256.71232001099 
1002, 8247.33584847951 
1003, 8242.91495099206 
1004, 8251.6899176024 
1005, 8263.37928084986 
1006, 8284.07755713558 
1007, 8313.5829366477 
1008, 8348.49353176857 
1009, 8389.37527133008 
1010, 8439.79135539793 
1011, 8487.97275627037 
1012, 8539.77144217066 
1013, 8597.26410733847 
1014, 8647.14546169527 
1015, 8692.69719620248 
1016, 8743.2347243813 
1017, 8792.14753254418 
1018, 8843.27060830221 
1019, 8895.80703699277 
1020, 8943.59408927478 
1021, 8999.98787586074 
1022, 9058.68315004806 
1023, 9121.59648462345 
1024, 9182.18306549799 
1025, 9242.34547443081 
1026, 9296.2672063757 
1027, 9348.63931628029 
1028, 9407.84521008329 
1029, 9468.31277757031 
1030, 9525.23550055587 
1031, 9572.39106892823 
1032, 9611.70668328744 
1033, 9648.94022473224 
1034, 9682.53473315266 
1035, 9715.69115017296 
1036, 9745.05902677755 
1037, 9776.85789755224 
1038, 9812.09378928385 
1039, 9839.53001517814 
1040, 9862.11094259859 
1041, 9882.15873128015 
1042, 9893.44454492007 
1043, 9902.5793247079 
1044, 9913.82413877125 
1045, 9928.61630198046 
1046, 9941.56301304169 
1047, 9954.1738709198 
1048, 9967.00671595815 
1049, 9988.09979296056 
1050, 10003.7979544794 
1051, 10010.0844213225 
1052, 10027.7603124359 
1053, 10042.0187922045 
1054, 10046.6539692148 
1055, 10062.2617391812 
1056, 10079.805257104 
1057, 10094.0345206031 
1058, 10117.0899863596 
1059, 10153.1997664418 
1060, 10191.8888808528 
1061, 10234.8931639199 
1062, 10286.0777175895 
1063, 10344.4563094873 
1064, 10404.0242172771 
1065, 10477.9876290277 
1066, 10559.3782216707 
1067, 10641.1358203356 
1068, 10737.649647568 
1069, 10840.8702492435 
1070, 10945.8404671471 
1071, 11069.794361492 
1072, 11192.7189412159 
1073, 11315.7532990744 
1074, 11448.0767931165 
1075, 11571.1445055928 
1076, 11693.6053895792 
1077, 11808.3777755328 
1078, 11907.227342477 
1079, 11997.7132405376 
1080, 12069.9187641535 
1081, 12133.3431753984 
1082, 12199.7812433142 
1083, 12259.3596947011 
1084, 12319.4730642105 
1085, 12375.8265638119 
1086, 12429.6699647714 
1087, 12486.3937904068 
1088, 12527.5912801581 
1089, 12569.4811251082 
1090, 12590.6233325084 
1091, 12596.0029913732 
1092, 12588.5122376205 
1093, 12564.4893956839 
1094, 12530.7983054582 
1095, 12499.9091171587 
1096, 12459.1515737359 
1097, 12415.477003631 
1098, 12374.8849795155 
1099, 12334.8300658047 
1100, 12293.322205751 
1101, 12251.1588236131 
1102, 12216.5933558666 
1103, 12167.639121056 
1104, 12123.1232802899 
1105, 12050.6606390228 
1106, 11964.8419636327 
1107, 11858.5940003106 
1108, 11695.2651507424 
1109, 11488.6378669336 
1110, 11213.8373542826 
1111, 10873.2613823444 
1112, 10471.301754913 
1113, 9980.8311518789 
1114, 9490.42019237857 
1115, 8908.43544329397 
1116, 8394.21481345903 
1117, 7843.25330875472 
1118, 7377.71952569764 
1119, 6956.05333373025 
1120, 6570.32226489901 
1121, 6245.07813598473 
1122, 5984.7226416697 
1123, 5797.68344154205 
1124, 5671.34263239418 
1125, 5614.54035168703 
1126, 5657.64279546272 
1127, 5696.97171631075 
1128, 5797.81184350074 
1129, 5897.15572271807 
1130, 6028.15654444832 
1131, 6157.29831105741 
1132, 6288.37396956057 
1133, 6448.37206947889 
1134, 6617.15376016804 
1135, 6804.67433509902 
1136, 7067.32464038769 
1137, 7334.9629429572 
1138, 7591.93839909481 
1139, 7828.236991879 
1140, 7982.47794873958 
1141, 8083.31638671169 
1142, 8131.71430845255 
1143, 8091.94592614325 
1144, 8072.89523636619 
1145, 7942.57961636816 
1146, 7943.00703025917 
1147, 7947.94814209997 
1148, 8053.21202827345 
1149, 8251.76344217538 
1150, 8504.71681894474 
1151, 8832.65473945637 
1152, 9199.61000242182 
1153, 9586.01799378964 
1154, 10036.8500431005 
1155, 10461.0385769871 
1156, 10908.2027995892 
1157, 11334.6191304905 
1158, 11768.3226071711 
1159, 12175.8312890032 
1160, 12582.8635187789 
1161, 12952.1465444647 
1162, 13303.0221039959 
1163, 13623.1118036729 
1164, 13911.7333895189 
1165, 14174.020610174 
1166, 14416.7217870361 
1167, 14626.2333786866 
1168, 14805.7065866051 
1169, 14955.4951818131 
1170, 15078.5242006196 
1171, 15167.1810345132 
1172, 15238.9430497772 
1173, 15280.7144341262 
1174, 15313.2118017497 
1175, 15320.3436941879 
1176, 15321.1154007875 
1177, 15301.1040920735 
