Wavelength,0212202100107.asd
350, 2573.09708632181 
351, 2705.49353113685 
352, 2829.38137885248 
353, 2932.3459712091 
354, 3033.69130877303 
355, 3140.05664291714 
356, 3251.91887475053 
357, 3362.52055540692 
358, 3477.71225086956 
359, 3600.3245433355 
360, 3734.35955379524 
361, 3897.36033517113 
362, 4086.66393422486 
363, 4292.93483807575 
364, 4502.64127808473 
365, 4716.05643342791 
366, 4919.44917669337 
367, 5096.91468776142 
368, 5234.06953007389 
369, 5313.38925834513 
370, 5340.92185047554 
371, 5334.30706999653 
372, 5310.99455201082 
373, 5300.84920293669 
374, 5308.14444379623 
375, 5318.90583770165 
376, 5331.64694922939 
377, 5339.6273453971 
378, 5329.59755223447 
379, 5281.04876453811 
380, 5216.67546914902 
381, 5145.06211082612 
382, 5066.60591990433 
383, 4967.08363839679 
384, 4866.38815053443 
385, 4795.96877109936 
386, 4792.36549981719 
387, 4889.1112480621 
388, 5030.66898253607 
389, 5155.24403151394 
390, 5210.06246612942 
391, 5267.42713027789 
392, 5325.62486582032 
393, 5374.8077365719 
394, 5410.87079683691 
395, 5520.93864635053 
396, 5739.44397006921 
397, 6077.10432966523 
398, 6556.51191441661 
399, 7105.05441848313 
400, 7668.16051882546 
401, 8214.00105181655 
402, 8734.93809273317 
403, 9164.4934338837 
404, 9473.37334925382 
405, 9712.42786758358 
406, 9902.33195298247 
407, 10071.3486025439 
408, 10254.2382970325 
409, 10505.8056530656 
410, 10809.1337171432 
411, 11144.8768106944 
412, 11493.3900168261 
413, 11838.1352751128 
414, 12179.2702440398 
415, 12508.8400268601 
416, 12798.8537640766 
417, 13074.6150712247 
418, 13355.4829138313 
419, 13646.4254661921 
420, 13903.505394737 
421, 14160.9464581246 
422, 14439.9899881234 
423, 14743.834684119 
424, 15022.8183279136 
425, 15241.7527403659 
426, 15370.9264563844 
427, 15381.9478530289 
428, 15320.7562657921 
429, 15326.3682833022 
430, 15512.9777169483 
431, 15787.4393501822 
432, 16150.5507102186 
433, 16684.8078912856 
434, 17496.6389534173 
435, 18362.6841657082 
436, 19026.6763886859 
437, 19434.1873755749 
438, 19864.2521872814 
439, 20305.0449143033 
440, 20720.6329667233 
441, 21097.4108725419 
442, 21584.5023789758 
443, 22100.0145840958 
444, 22574.5203235055 
445, 22959.9589636505 
446, 23269.9132950845 
447, 23546.5407065655 
448, 23837.8129837968 
449, 24201.1751717778 
450, 24513.1837028244 
451, 24681.8834696592 
452, 24669.2179188279 
453, 24607.1855440528 
454, 24468.6404429248 
455, 24289.5172033413 
456, 24163.4111132777 
457, 24131.8579560616 
458, 24137.9842327174 
459, 24121.0275123465 
460, 24054.2826883352 
461, 23958.4534169405 
462, 23855.1234202972 
463, 23753.0082295575 
464, 23595.1649855917 
465, 23351.670025342 
466, 23050.3925279891 
467, 22774.3226546381 
468, 22540.5601047592 
469, 22364.1500659925 
470, 22253.4531066968 
471, 22217.1610316877 
472, 22191.6486305742 
473, 22182.4467386849 
474, 22214.9363494937 
475, 22206.191533012 
476, 22180.7022154287 
477, 22164.9742263732 
478, 22174.9727172273 
479, 22246.070256258 
480, 22346.8154877074 
481, 22419.7016996386 
482, 22402.0427655755 
483, 22236.5639233391 
484, 21888.1470627016 
485, 21366.3891942515 
486, 20857.6790452222 
487, 20493.7279450542 
488, 20381.9131790468 
489, 20617.3902712515 
490, 20996.8860547425 
491, 21311.6168167397 
492, 21425.3134126172 
493, 21466.6355583891 
494, 21523.6479654374 
495, 21640.9011495086 
496, 21810.6851452954 
497, 21865.2266647179 
498, 21805.5154530362 
499, 21668.0561824017 
500, 21482.8956086121 
501, 21341.5872845796 
502, 21284.2197211112 
503, 21329.0447141633 
504, 21523.353632552 
505, 21797.8595106 
506, 22080.0235518575 
507, 22306.020137695 
508, 22476.6573560459 
509, 22609.3117590208 
510, 22733.477361543 
511, 22903.523187857 
512, 23022.4110293998 
513, 23046.3896522289 
514, 22965.6946378038 
515, 22778.6443869327 
516, 22525.8861643552 
517, 22277.5186457532 
518, 22129.6404174853 
519, 22312.2102278945 
520, 22848.4718728234 
521, 23610.3870663875 
522, 24245.3198412694 
523, 24719.4415575949 
524, 25052.697322203 
525, 25300.770322443 
526, 25411.5602738382 
527, 25455.6633860136 
528, 25584.0939653021 
529, 26090.5084188437 
530, 26758.046615882 
531, 27326.4957968798 
532, 27578.7628646421 
533, 27661.3800927168 
534, 27784.4770474597 
535, 28060.6197891639 
536, 28480.028589897 
537, 28785.5240876797 
538, 28928.4595792403 
539, 28946.0487974532 
540, 28936.2081232116 
541, 28960.3945905413 
542, 29105.4027713029 
543, 29440.29457625 
544, 29830.451835232 
545, 30172.6614937348 
546, 30410.0977636469 
547, 30546.0253619642 
548, 30637.2338329425 
549, 30743.5433134878 
550, 30901.545747553 
551, 31066.0272070759 
552, 31193.0512805429 
553, 31285.5915946982 
554, 31382.9290137482 
555, 31458.1612454734 
556, 31432.7890476417 
557, 31262.4672612852 
558, 30974.8928448019 
559, 30727.1591093977 
560, 30614.1892941078 
561, 30670.9557373724 
562, 30808.5815609666 
563, 30891.2489687806 
564, 30849.3941697319 
565, 30697.5513107595 
566, 30482.6639620915 
567, 30263.9173874045 
568, 30077.4416671598 
569, 29891.6940583429 
570, 29648.2543892002 
571, 29415.4425237497 
572, 29329.5560071956 
573, 29356.0775210901 
574, 29348.9570882497 
575, 29215.7566901408 
576, 28971.4552087629 
577, 28744.2861671883 
578, 28623.8517662756 
579, 28660.1546242441 
580, 28811.1065112402 
581, 29075.5741329338 
582, 29397.8799500078 
583, 29672.4370099215 
584, 29849.3210150353 
585, 29851.938197825 
586, 29668.565175787 
587, 29435.0311183559 
588, 29144.4349887997 
589, 28750.8656717619 
590, 28255.2422032208 
591, 28076.3049181779 
592, 28207.8046001041 
593, 28455.4668057261 
594, 28449.2498505939 
595, 28308.830813731 
596, 28107.6468108208 
597, 27897.9610886106 
598, 27670.0345847142 
599, 27390.541901161 
600, 27082.4126385699 
601, 26808.2558248642 
602, 26596.1461156932 
603, 26481.486303017 
604, 26463.6316280339 
605, 26491.5796836844 
606, 26436.9744615791 
607, 26290.9412384375 
608, 26100.0418384553 
609, 25915.3960060545 
610, 25739.0974693388 
611, 25578.3587697954 
612, 25445.0151020268 
613, 25306.2999182935 
614, 25142.8457077279 
615, 24961.5258754452 
616, 24818.0780057653 
617, 24730.4661358383 
618, 24732.7258258083 
619, 24841.0915590257 
620, 24954.3625350055 
621, 24967.8597344177 
622, 24846.9068060934 
623, 24642.7568960848 
624, 24408.0982654595 
625, 24183.8916764787 
626, 23992.2370008737 
627, 23819.7918731879 
628, 23649.9020934035 
629, 23488.7498450187 
630, 23366.3223749131 
631, 23376.0972099406 
632, 23462.527135214 
633, 23571.3325280044 
634, 23687.6326328551 
635, 23775.2061560231 
636, 23835.8672444052 
637, 23880.1598604901 
638, 23894.6255305418 
639, 23862.3839881748 
640, 23764.1362506069 
641, 23589.2032923541 
642, 23452.8018699502 
643, 23370.9492771542 
644, 23317.4363138468 
645, 23224.0616256919 
646, 23075.8272076055 
647, 22888.0614118139 
648, 22696.2667818948 
649, 22541.4418011885 
650, 22421.6604635161 
651, 22358.5409174714 
652, 22391.0808528456 
653, 22345.2487308833 
654, 22101.1606118172 
655, 21637.8546053539 
656, 21097.2047950385 
657, 20702.7833994336 
658, 20702.147941186 
659, 21227.0003294616 
660, 21771.2860026247 
661, 22086.3674004644 
662, 22151.1739709589 
663, 22182.973756946 
664, 22163.6889472188 
665, 22129.4963909226 
666, 22112.7358091853 
667, 22119.2980785932 
668, 22112.5538441793 
669, 22091.5694816395 
670, 22072.0280962947 
671, 22027.4447015857 
672, 21975.0534919171 
673, 21941.0730388942 
674, 21956.7566812019 
675, 21984.7052560267 
676, 22006.4976210841 
677, 22015.7084575243 
678, 22026.897386703 
679, 22033.8671637803 
680, 22033.3388223606 
681, 22023.6206370743 
682, 22009.2064013647 
683, 21959.8396312539 
684, 21778.3983659133 
685, 21283.7269165281 
686, 20406.0287186475 
687, 19220.9216184019 
688, 18014.742422577 
689, 17506.9213792199 
690, 17868.5441107559 
691, 18771.5255193106 
692, 19590.3385637975 
693, 20302.1528835584 
694, 20818.1635272142 
695, 21134.0561004333 
696, 21356.2366321678 
697, 21549.9808142163 
698, 21682.1331027004 
699, 21709.5525718397 
700, 21664.0271730918 
701, 21618.2813927484 
702, 21625.3008685785 
703, 21717.7740435091 
704, 21903.4534072531 
705, 22119.5610330407 
706, 22304.9528854605 
707, 22415.1492131613 
708, 22508.8154365869 
709, 22593.8108997226 
710, 22667.1822769032 
711, 22739.6016420953 
712, 22790.2312834 
713, 22810.0460611611 
714, 22788.8106555751 
715, 22674.1109206054 
716, 22371.1425431214 
717, 21837.0106143094 
718, 21101.7998268484 
719, 20487.8963499481 
720, 20262.1558816665 
721, 20528.7582681207 
722, 21091.9307230546 
723, 21487.7892197695 
724, 21554.3352516164 
725, 21373.4813070498 
726, 21333.3524363377 
727, 21401.9460212352 
728, 21505.5520092637 
729, 21575.2531937102 
730, 21729.9306411705 
731, 22003.3620822768 
732, 22380.1797768245 
733, 22791.9499744987 
734, 23153.4098444083 
735, 23391.1051773101 
736, 23469.4293182616 
737, 23463.4211636053 
738, 23443.4208770636 
739, 23426.3080324128 
740, 23386.9191426587 
741, 23383.1132714955 
742, 23426.4034019694 
743, 23511.0389184206 
744, 23619.7167583713 
745, 23697.345226757 
746, 23736.6726445321 
747, 23746.7747311276 
748, 23730.4836917429 
749, 23668.9575407009 
750, 23576.5271807492 
751, 23491.056988769 
752, 23452.341730836 
753, 23451.5779579093 
754, 23463.1006148355 
755, 23447.7532996719 
756, 23346.5589035013 
757, 22873.5844689183 
758, 21572.1441127081 
759, 18674.5578775014 
760, 14390.9934944076 
761, 10172.9177100723 
762, 7787.85986221244 
763, 7764.63374229474 
764, 9008.65181080851 
765, 10959.1163611183 
766, 13544.516467995 
767, 16371.550933723 
768, 18831.8879843422 
769, 20549.7214023729 
770, 21520.5325646549 
771, 22003.8080668297 
772, 22197.5224772315 
773, 22253.2667298186 
774, 22248.9979708376 
775, 22202.7859904381 
776, 22139.5367307314 
777, 22075.7621289017 
778, 21991.8927883643 
779, 21889.7364525095 
780, 21784.473141718 
781, 21697.6408581244 
782, 21606.234449556 
783, 21495.5660595322 
784, 21366.0085018218 
785, 21238.0924620461 
786, 21111.2630190889 
787, 20962.3291111061 
788, 20772.3410312566 
789, 20549.1770143308 
790, 20313.5277575546 
791, 20075.0635396934 
792, 19839.2985526543 
793, 19614.4941204208 
794, 19431.7668792329 
795, 19309.8671626956 
796, 19249.0871333312 
797, 19203.6308186183 
798, 19128.6825567525 
799, 19000.6520512486 
800, 18823.8857657455 
801, 18629.0999443238 
802, 18448.0383722691 
803, 18294.5632933442 
804, 18145.240005506 
805, 18018.1668036698 
806, 17901.3918693534 
807, 17770.7169952186 
808, 17601.0846268604 
809, 17391.7159338557 
810, 17154.7686220684 
811, 16901.461127031 
812, 16599.4671489544 
813, 16200.8251613627 
814, 15698.9585184238 
815, 15136.0981992913 
816, 14616.7645019206 
817, 14211.8227433954 
818, 13965.5373450075 
819, 13893.2361682786 
820, 13883.1245372598 
821, 13843.3481239899 
822, 13734.6841104725 
823, 13609.6717637475 
824, 13526.743333333 
825, 13540.7844485849 
826, 13639.7303304119 
827, 13619.21058494 
828, 13472.4490021491 
829, 13269.4734086166 
830, 13111.0013214284 
831, 13009.9745116595 
832, 12938.0603306537 
833, 12880.9082103927 
834, 12840.1766222136 
835, 12824.7508636815 
836, 12819.1759854842 
837, 12799.8221866703 
838, 12740.3697990346 
839, 12651.1323830198 
840, 12541.0882922622 
841, 12418.7120292433 
842, 12290.5501497391 
843, 12155.4741363165 
844, 12020.5675262383 
845, 11891.1703172203 
846, 11767.349489306 
847, 11612.6744883912 
848, 11423.6724466907 
849, 11212.6191445721 
850, 11000.3003660267 
851, 10750.6550127106 
852, 10492.4513316132 
853, 10278.8419368526 
854, 10117.6111136332 
855, 9986.91779703083 
856, 9925.79928016484 
857, 9988.75475730543 
858, 10087.1770836207 
859, 10111.7109053739 
860, 10040.7694860084 
861, 9931.59826049336 
862, 9801.51929841787 
863, 9633.60092382659 
864, 9429.71351270313 
865, 9218.44757936708 
866, 9016.15366627803 
867, 8845.77142890415 
868, 8735.64058133202 
869, 8717.00868482692 
870, 8738.22372719672 
871, 8730.20480381296 
872, 8658.76198149854 
873, 8555.75365420242 
874, 8446.38952245785 
875, 8336.58698900189 
876, 8226.79432298669 
877, 8120.47172209207 
878, 8016.50622048242 
879, 7914.17338750504 
880, 7812.1553506822 
881, 7707.30244543577 
882, 7602.99323625805 
883, 7503.87172717373 
884, 7411.8478216702 
885, 7320.08179689991 
886, 7221.42381767433 
887, 7117.26942638963 
888, 7013.19641631367 
889, 6914.32206810631 
890, 6815.33627394939 
891, 6704.14922935669 
892, 6567.35382764739 
893, 6399.81169171826 
894, 6206.18183547079 
895, 5991.84061471042 
896, 5764.22890180536 
897, 5535.77088061667 
898, 5319.70819482146 
899, 5138.79494083986 
900, 5015.43193782252 
901, 4946.7229725798 
902, 4917.60111867919 
903, 4907.42028080268 
904, 4894.45710398046 
905, 4867.45414945224 
906, 4815.48488979348 
907, 4728.79225016386 
908, 4605.09255649577 
909, 4469.55921599438 
910, 4355.10894982176 
911, 4273.471903813 
912, 4216.73324116873 
913, 4169.91247664953 
914, 4125.29123290268 
915, 4080.43823346647 
916, 4038.41906537582 
917, 4011.14227105463 
918, 3991.37821961652 
919, 3972.86516099525 
920, 3952.27803163593 
921, 3931.94361738318 
922, 3900.22519747424 
923, 3848.70951266418 
924, 3773.82231999223 
925, 3678.02802719149 
926, 3561.28943039037 
927, 3419.8104365041 
928, 3248.54879190722 
929, 3048.43401685634 
930, 2822.65510156129 
931, 2583.45054267796 
932, 2350.11385808327 
933, 2143.81446720587 
934, 1980.43958871803 
935, 1869.71756145252 
936, 1813.09822769593 
937, 1799.82038439603 
938, 1813.7064833735 
939, 1837.9378296666 
940, 1859.56263205644 
941, 1878.80597521087 
942, 1886.29940943034 
943, 1871.69030755456 
944, 1831.46078842621 
945, 1780.61105105662 
946, 1739.36715526977 
947, 1714.71476579284 
948, 1704.50190681782 
949, 1701.57964982676 
950, 1699.26392739523 
951, 1695.51744057686 
952, 1689.67067840894 
953, 1679.16167296893 
954, 1668.82212708763 
955, 1660.72609074067 
956, 1655.53382589921 
957, 1652.90251603294 
958, 1650.84163994821 
959, 1649.97754036856 
960, 1650.74473538643 
961, 1652.35218504446 
962, 1656.18522814398 
963, 1661.82926928472 
964, 1668.80015953463 
965, 1676.4655465911 
966, 1678.97971855551 
967, 1678.10792735114 
968, 1675.12710349691 
969, 1669.40697902587 
970, 1658.43525970496 
971, 1643.4854898005 
972, 1623.34514797918 
973, 1596.01339443755 
974, 1564.60920865789 
975, 1530.40197125557 
976, 1497.11176712234 
977, 1468.24669119026 
978, 1442.47737359182 
979, 1423.59520173654 
980, 1407.95956718381 
981, 1391.6238066433 
982, 1376.81193551627 
983, 1360.05543538383 
984, 1340.57962182809 
985, 1319.22146200368 
986, 1297.8164444515 
987, 1275.05270072806 
988, 1250.06987390499 
989, 1223.67740123234 
990, 1197.91800060541 
991, 1171.00958770762 
992, 1146.08013138282 
993, 1121.17357931658 
994, 1092.52127352266 
995, 1066.84863460382 
996, 1040.76812027147 
997, 1014.31280677472 
998, 988.535276468918 
999, 961.936669650534 
1000, 935.479973847165 
1001, 5872.93738636986 
1002, 5854.35146274616 
1003, 5836.50826667867 
1004, 5823.40538532966 
1005, 5817.35318903712 
1006, 5811.61692514767 
1007, 5812.18534260348 
1008, 5822.17473639042 
1009, 5834.47956581768 
1010, 5851.77275898763 
1011, 5870.19214085554 
1012, 5894.34986200928 
1013, 5917.85290961623 
1014, 5938.3644220587 
1015, 5960.77202016152 
1016, 5985.62816706769 
1017, 6007.60266465032 
1018, 6033.03612342331 
1019, 6061.76232360954 
1020, 6094.80630808056 
1021, 6130.47013919243 
1022, 6165.20436309851 
1023, 6200.15056232572 
1024, 6238.41202154104 
1025, 6274.33270348091 
1026, 6310.50821737372 
1027, 6345.63254821501 
1028, 6372.8666379401 
1029, 6396.8150288814 
1030, 6423.51411293987 
1031, 6450.82696217898 
1032, 6478.55189254813 
1033, 6513.63637760238 
1034, 6541.68457973917 
1035, 6566.53961867896 
1036, 6585.10674041764 
1037, 6614.06363682337 
1038, 6641.63412853102 
1039, 6665.37604266199 
1040, 6695.03559050921 
1041, 6718.55586342778 
1042, 6731.83998721885 
1043, 6744.57392442913 
1044, 6757.92133543581 
1045, 6768.89862931115 
1046, 6784.69438443068 
1047, 6806.11442142411 
1048, 6834.61604913738 
1049, 6861.63686360422 
1050, 6887.38528587167 
1051, 6911.09694398014 
1052, 6932.1816010628 
1053, 6959.28765808308 
1054, 6988.40789008595 
1055, 7016.81512827753 
1056, 7047.20239439023 
1057, 7077.07280996183 
1058, 7112.23274999443 
1059, 7154.10548849831 
1060, 7197.41905147329 
1061, 7240.83123893034 
1062, 7295.86814264999 
1063, 7358.71503203555 
1064, 7421.04587659361 
1065, 7489.53765341432 
1066, 7560.3961924607 
1067, 7629.20828605327 
1068, 7709.89418823013 
1069, 7801.84971336681 
1070, 7899.45528921576 
1071, 8007.16184709968 
1072, 8113.24522535852 
1073, 8218.95402953362 
1074, 8333.06792544939 
1075, 8435.26443822348 
1076, 8532.47673190353 
1077, 8628.34566045161 
1078, 8710.50159957234 
1079, 8781.94158813049 
1080, 8845.04569790819 
1081, 8896.36902185018 
1082, 8946.10966510307 
1083, 8998.3069390925 
1084, 9048.50747656202 
1085, 9096.02731579733 
1086, 9137.18595858051 
1087, 9175.22478212673 
1088, 9204.72733274739 
1089, 9230.22328730013 
1090, 9244.78855886592 
1091, 9250.69215048315 
1092, 9253.23683567473 
1093, 9236.25210837565 
1094, 9207.44636344104 
1095, 9177.01993955708 
1096, 9139.46738983954 
1097, 9103.61884169016 
1098, 9074.6035503025 
1099, 9043.41800642711 
1100, 9011.9668679053 
1101, 8977.66640815051 
1102, 8947.56911670806 
1103, 8907.75906258404 
1104, 8868.2631328862 
1105, 8815.55349296866 
1106, 8756.88382054199 
1107, 8672.82923645155 
1108, 8551.22712150787 
1109, 8403.55372889054 
1110, 8199.51572461369 
1111, 7947.18039544012 
1112, 7656.05782849028 
1113, 7304.08340556364 
1114, 6951.30008368477 
1115, 6538.95327350546 
1116, 6169.14973793464 
1117, 5771.71653593851 
1118, 5430.08812359621 
1119, 5110.42232982131 
1120, 4822.52662727773 
1121, 4587.94737213512 
1122, 4400.08488658314 
1123, 4275.71097820116 
1124, 4193.13785285486 
1125, 4148.67526679251 
1126, 4163.2631143612 
1127, 4184.98063428359 
1128, 4248.18537671419 
1129, 4312.55091004041 
1130, 4406.87245330645 
1131, 4493.87966768879 
1132, 4579.71091713907 
1133, 4683.5490047757 
1134, 4790.69982854029 
1135, 4909.70739530913 
1136, 5082.95512101981 
1137, 5262.34055265563 
1138, 5442.29816481297 
1139, 5609.82968809961 
1140, 5718.13420308381 
1141, 5795.72187095729 
1142, 5823.52671482897 
1143, 5780.32627510391 
1144, 5757.28576012008 
1145, 5652.75377990741 
1146, 5638.77340257748 
1147, 5632.89483999528 
1148, 5692.1881601846 
1149, 5813.01538029731 
1150, 5967.78839135692 
1151, 6171.05910640673 
1152, 6403.21211611998 
1153, 6641.81533481336 
1154, 6918.78890352102 
1155, 7176.34940558494 
1156, 7447.28667196241 
1157, 7699.62624821446 
1158, 7950.93179290939 
1159, 8187.15818130322 
1160, 8421.14867175854 
1161, 8629.78149074408 
1162, 8831.59405825594 
1163, 9002.26099327775 
1164, 9148.67717539827 
1165, 9269.76126221837 
1166, 9368.8927357728 
1167, 9446.12321080595 
1168, 9504.78406127359 
1169, 9541.842984643 
1170, 9563.91622631097 
1171, 9562.03787068493 
1172, 9553.90738478741 
1173, 9529.57469608749 
1174, 9496.83230598681 
1175, 9453.17558267639 
1176, 9399.63573806386 
