Wavelength,0212202100091.asd
350, 2653.12686189086 
351, 2790.38659883945 
352, 2917.16683726256 
353, 3025.55471727325 
354, 3130.10071310236 
355, 3240.34942136797 
356, 3359.10081638627 
357, 3474.18123391862 
358, 3593.11607752428 
359, 3720.25519467868 
360, 3861.04967063591 
361, 4034.39778259775 
362, 4233.00347729485 
363, 4446.6714824438 
364, 4664.94901959373 
365, 4885.99832759054 
366, 5097.66844061814 
367, 5284.25993990068 
368, 5427.8549581125 
369, 5512.28675603661 
370, 5542.66590792606 
371, 5536.07742643218 
372, 5513.33365217632 
373, 5502.39242346978 
374, 5510.21593696821 
375, 5526.92314968307 
376, 5539.74645924444 
377, 5547.70296255741 
378, 5539.28848744072 
379, 5487.70712922125 
380, 5423.44223346261 
381, 5351.25311974455 
382, 5268.10726672357 
383, 5165.66369355729 
384, 5062.09161020915 
385, 4989.48873802578 
386, 4986.25639272223 
387, 5088.4299919583 
388, 5236.64714644612 
389, 5366.5230524662 
390, 5424.73072899865 
391, 5485.32089988404 
392, 5545.92163709863 
393, 5596.673287673 
394, 5636.00610805806 
395, 5748.76657008917 
396, 5974.53890759532 
397, 6329.46091406818 
398, 6828.97775171136 
399, 7399.44529274505 
400, 7985.82724144136 
401, 8555.84610159284 
402, 9097.44840831157 
403, 9544.72510797247 
404, 9868.79528260624 
405, 10118.7889402029 
406, 10316.63765498 
407, 10491.7032139788 
408, 10680.4910257731 
409, 10941.9107564543 
410, 11257.4488283305 
411, 11606.9120991432 
412, 11970.3885066659 
413, 12329.5670776624 
414, 12684.8971514136 
415, 13028.5298030117 
416, 13331.7671986271 
417, 13617.730328218 
418, 13909.2845176158 
419, 14214.1941418877 
420, 14480.9291465322 
421, 14748.4249375801 
422, 15039.6110806184 
423, 15356.6052966466 
424, 15646.6573290254 
425, 15874.7860097113 
426, 16010.5531625891 
427, 16022.1993434065 
428, 15962.044173214 
429, 15970.9809320949 
430, 16164.2595586205 
431, 16452.9602763597 
432, 16830.2950330897 
433, 17385.2245593628 
434, 18237.9021294047 
435, 19142.9441114527 
436, 19834.6644780873 
437, 20258.762286807 
438, 20706.5243638354 
439, 21169.2991867327 
440, 21605.8785933901 
441, 21998.0516151564 
442, 22506.7285217646 
443, 23045.7129434139 
444, 23541.4885346431 
445, 23942.9966016519 
446, 24267.4769118308 
447, 24557.1386968487 
448, 24861.5231312081 
449, 25244.1038557561 
450, 25570.3775004158 
451, 25746.8831726194 
452, 25736.8162942121 
453, 25668.3872777521 
454, 25523.5948496837 
455, 25340.3161233388 
456, 25207.9104494246 
457, 25177.24605245 
458, 25185.0368470979 
459, 25165.9977953311 
460, 25099.4199419019 
461, 24999.2238318807 
462, 24889.6270537292 
463, 24784.0824167938 
464, 24621.1254974684 
465, 24366.9667891797 
466, 24051.2699117175 
467, 23764.244698515 
468, 23519.8514083533 
469, 23335.9395801306 
470, 23222.0389585287 
471, 23181.1584860067 
472, 23152.4604075169 
473, 23141.922577229 
474, 23174.2214779821 
475, 23165.5075214585 
476, 23139.3638579005 
477, 23123.3284929372 
478, 23136.6630413166 
479, 23212.3973752566 
480, 23318.4090780071 
481, 23396.1410575131 
482, 23380.1646189906 
483, 23210.3117343101 
484, 22849.1975236765 
485, 22305.917569366 
486, 21773.7600829676 
487, 21395.7240509688 
488, 21284.1116020928 
489, 21528.8033627177 
490, 21925.1156083387 
491, 22254.6009377205 
492, 22373.1300799914 
493, 22417.49748591 
494, 22479.9046692289 
495, 22605.3226125668 
496, 22782.934383732 
497, 22837.7622107991 
498, 22774.7291425331 
499, 22633.8206928693 
500, 22442.8466794477 
501, 22298.2940598165 
502, 22240.9173731885 
503, 22288.6782138754 
504, 22493.8068778441 
505, 22782.2499853254 
506, 23077.5849752441 
507, 23313.9244618556 
508, 23493.0889937198 
509, 23632.4533636183 
510, 23762.0161308794 
511, 23938.7935885975 
512, 24062.3245780252 
513, 24086.5743042379 
514, 24000.6666621987 
515, 23805.3545280458 
516, 23541.1607483115 
517, 23280.9758544312 
518, 23127.8990587779 
519, 23320.6107060874 
520, 23880.7198187097 
521, 24673.8891597889 
522, 25340.5357718568 
523, 25838.7459730734 
524, 26187.1876355369 
525, 26445.7594872176 
526, 26561.8682698814 
527, 26609.8794769901 
528, 26747.2809663589 
529, 27279.6779414041 
530, 27977.6659200378 
531, 28569.6705677358 
532, 28831.0761796414 
533, 28918.9334596261 
534, 29050.676967094 
535, 29342.4403528659 
536, 29783.6742170723 
537, 30102.3454747511 
538, 30252.4780917329 
539, 30275.849181392 
540, 30266.2863355078 
541, 30293.5214318582 
542, 30448.6738558266 
543, 30801.5361280205 
544, 31211.2397761252 
545, 31569.9587460194 
546, 31819.7067083673 
547, 31967.5154906509 
548, 32064.3776122686 
549, 32174.7350013108 
550, 32340.8051824476 
551, 32513.0779630873 
552, 32647.4465124533 
553, 32746.9864664129 
554, 32851.0711062165 
555, 32930.7339229456 
556, 32904.1155739064 
557, 32725.7571351597 
558, 32426.5081341772 
559, 32170.0398207074 
560, 32054.0443469787 
561, 32113.7193937507 
562, 32259.4160999878 
563, 32345.467963842 
564, 32299.5872486704 
565, 32142.7526683761 
566, 31919.0354851849 
567, 31689.9573977753 
568, 31493.9651063486 
569, 31298.1805583294 
570, 31042.5524766676 
571, 30797.7238847583 
572, 30704.5820973371 
573, 30729.1814018914 
574, 30719.9259875126 
575, 30579.9440227559 
576, 30322.6601059956 
577, 30083.3754287097 
578, 29957.5818794166 
579, 29998.9302542156 
580, 30162.1307519963 
581, 30442.9290417295 
582, 30782.6194401674 
583, 31072.7323386559 
584, 31260.7432855005 
585, 31265.4530304092 
586, 31074.8496409534 
587, 30835.2934977892 
588, 30533.8457714169 
589, 30125.2482671044 
590, 29615.1340277368 
591, 29431.0239980326 
592, 29568.6647492879 
593, 29827.1001208007 
594, 29819.9356692041 
595, 29671.2022687203 
596, 29459.1267282054 
597, 29239.5184504587 
598, 29000.1880826482 
599, 28706.8581947023 
600, 28383.2597961125 
601, 28094.5091098045 
602, 27874.7196420317 
603, 27755.8195375999 
604, 27734.3134687442 
605, 27760.3287025625 
606, 27702.8442630142 
607, 27550.5315322897 
608, 27348.9750121979 
609, 27153.6371167381 
610, 26969.1223225007 
611, 26802.1785434505 
612, 26661.55862304 
613, 26515.6393014142 
614, 26344.0446620718 
615, 26153.8045910505 
616, 26004.6586118329 
617, 25910.6830786392 
618, 25909.4690753438 
619, 26022.5665292302 
620, 26142.8397431536 
621, 26157.8412049815 
622, 26030.3031348193 
623, 25815.5068173048 
624, 25570.7626564159 
625, 25337.2352018047 
626, 25135.9106642635 
627, 24952.7089139059 
628, 24772.686305007 
629, 24602.3327808052 
630, 24472.0972071769 
631, 24486.4003047252 
632, 24579.7739358294 
633, 24692.9822234664 
634, 24819.0322228788 
635, 24915.620029515 
636, 24982.5823499278 
637, 25030.4528102199 
638, 25048.7221903353 
639, 25015.5648825692 
640, 24911.684693051 
641, 24730.7780658562 
642, 24590.1583840828 
643, 24506.030328199 
644, 24451.2812354951 
645, 24355.8462495277 
646, 24202.6915994148 
647, 24008.4203216028 
648, 23810.9293748153 
649, 23650.7967129302 
650, 23527.853154626 
651, 23462.8391304936 
652, 23491.2843165848 
653, 23442.8622318287 
654, 23188.4400640017 
655, 22701.7632417545 
656, 22133.3902318077 
657, 21722.5411068128 
658, 21724.6055005846 
659, 22270.8914208412 
660, 22837.4121146375 
661, 23166.9266380502 
662, 23236.4204319289 
663, 23268.0245082571 
664, 23247.5510164697 
665, 23212.7572535093 
666, 23196.3927281922 
667, 23204.098349575 
668, 23197.9685903918 
669, 23177.0838618388 
670, 23157.5820062232 
671, 23110.5912271122 
672, 23055.1913719861 
673, 23020.059453915 
674, 23039.0451546951 
675, 23070.841186704 
676, 23094.6490655338 
677, 23103.908172866 
678, 23119.3592210368 
679, 23124.8095318375 
680, 23120.7951783194 
681, 23115.9682644997 
682, 23103.0802072693 
683, 23051.3619319297 
684, 22860.0748444126 
685, 22338.4218370282 
686, 21409.385760789 
687, 20158.9304374895 
688, 18893.0512428426 
689, 18357.139635455 
690, 18739.9314483996 
691, 19697.8876792733 
692, 20570.2122121299 
693, 21337.610027506 
694, 21897.98435042 
695, 22241.3847501001 
696, 22481.6622855851 
697, 22684.9894306882 
698, 22824.4760767192 
699, 22860.667899434 
700, 22815.3714915259 
701, 22771.6760909044 
702, 22785.1658791142 
703, 22886.1320225058 
704, 23084.7235248701 
705, 23313.9305023584 
706, 23510.2845200008 
707, 23630.8617527615 
708, 23730.0791811729 
709, 23820.1818261116 
710, 23901.7533644468 
711, 23978.1094242668 
712, 24034.2864781185 
713, 24059.1707350877 
714, 24036.8114212062 
715, 23920.1052346432 
716, 23609.5928223347 
717, 23060.6176944499 
718, 22306.496526887 
719, 21674.2059938285 
720, 21440.8042822927 
721, 21715.493986232 
722, 22291.7130164552 
723, 22699.3192156765 
724, 22770.9246427216 
725, 22586.3861689047 
726, 22544.8254302287 
727, 22613.1835788057 
728, 22716.1381183562 
729, 22783.9945046176 
730, 22942.5593649796 
731, 23223.7847315986 
732, 23609.409975666 
733, 24030.8799590459 
734, 24397.9327398482 
735, 24637.558918007 
736, 24715.8986256988 
737, 24703.4621022881 
738, 24675.8540307357 
739, 24651.8943015009 
740, 24605.3538025847 
741, 24598.569795965 
742, 24640.7754435112 
743, 24724.387930924 
744, 24833.1357455881 
745, 24910.311679542 
746, 24947.7990171009 
747, 24954.3511465162 
748, 24933.8293542262 
749, 24862.6411674641 
750, 24758.4019262376 
751, 24666.1825273082 
752, 24621.8077122128 
753, 24617.0708418619 
754, 24625.26473688 
755, 24603.739660193 
756, 24491.0794079323 
757, 23986.4739966116 
758, 22609.7770500785 
759, 19553.700161518 
760, 15049.1005311175 
761, 10616.5776486831 
762, 8103.93463918389 
763, 8064.74671222515 
764, 9359.51665795084 
765, 11404.249365288 
766, 14123.5947637388 
767, 17101.663843303 
768, 19702.1898410859 
769, 21527.5681865876 
770, 22561.2446661239 
771, 23078.7804839508 
772, 23289.9969464324 
773, 23356.018453492 
774, 23361.1431868602 
775, 23317.3713222604 
776, 23254.5848978927 
777, 23196.1434089496 
778, 23111.619047427 
779, 23006.2515743245 
780, 22899.4174047105 
781, 22815.7878749469 
782, 22725.1680606698 
783, 22613.8771315165 
784, 22483.595472199 
785, 22354.6422112124 
786, 22225.45786382 
787, 22074.2309287947 
788, 21882.5293602063 
789, 21654.7750665839 
790, 21412.1183202759 
791, 21164.0350152274 
792, 20916.6497088522 
793, 20682.8070220788 
794, 20494.2127328787 
795, 20369.9863776418 
796, 20310.1762873255 
797, 20264.5527038507 
798, 20187.7706819048 
799, 20055.46838556 
800, 19870.3482566296 
801, 19668.0438474873 
802, 19478.2722904623 
803, 19314.3259731885 
804, 19159.1941538421 
805, 19025.6228392832 
806, 18901.9553436859 
807, 18764.4580036381 
808, 18581.5447152719 
809, 18360.362659539 
810, 18114.3846521118 
811, 17851.6056455974 
812, 17535.774884933 
813, 17121.0175643874 
814, 16600.2245382968 
815, 16012.9420815691 
816, 15469.5998926953 
817, 15045.8488528681 
818, 14786.9682612499 
819, 14704.3528405138 
820, 14687.246865013 
821, 14640.5447799678 
822, 14523.4722243837 
823, 14393.0644900521 
824, 14304.2720930472 
825, 14315.8514760767 
826, 14417.7817213149 
827, 14392.9028809499 
828, 14237.7140479277 
829, 14024.8831227365 
830, 13857.28489212 
831, 13748.9171137734 
832, 13671.7858153673 
833, 13610.503671022 
834, 13564.8817116308 
835, 13543.7191680727 
836, 13535.8245606198 
837, 13516.9765378086 
838, 13454.4303214911 
839, 13359.8299993533 
840, 13245.33789166 
841, 13119.2701293843 
842, 12981.8542479605 
843, 12843.243066485 
844, 12706.5064401586 
845, 12572.2733490711 
846, 12444.5425526066 
847, 12283.015047621 
848, 12085.099880851 
849, 11865.1812348296 
850, 11644.3481213267 
851, 11386.0099459948 
852, 11118.0758108363 
853, 10894.1724139758 
854, 10728.651324268 
855, 10597.5181752963 
856, 10538.9865854578 
857, 10608.1666870495 
858, 10720.2502328212 
859, 10751.8940529039 
860, 10679.4500617152 
861, 10569.2826686831 
862, 10438.4291903501 
863, 10266.2125695363 
864, 10054.0013228879 
865, 9834.13564339049 
866, 9625.19393707158 
867, 9450.15936821048 
868, 9338.29148961201 
869, 9323.45313395448 
870, 9351.89984542797 
871, 9350.16140610323 
872, 9281.05816351925 
873, 9176.83543590156 
874, 9066.74029500716 
875, 8956.50215504358 
876, 8845.60877834887 
877, 8737.57904385051 
878, 8632.94529819198 
879, 8529.27611048801 
880, 8424.13367649061 
881, 8317.80505298257 
882, 8211.96878769602 
883, 8110.99465913633 
884, 8017.1909758021 
885, 7924.96306777343 
886, 7823.6382084829 
887, 7715.70782383993 
888, 7608.73027528877 
889, 7504.93964982082 
890, 7402.05472296941 
891, 7285.92228768934 
892, 7140.35378595931 
893, 6965.97658363257 
894, 6761.25806201826 
895, 6532.23020286786 
896, 6290.22709920212 
897, 6046.17951188162 
898, 5814.80499170095 
899, 5621.784600175 
900, 5491.65497177478 
901, 5415.91480892183 
902, 5383.07720275116 
903, 5372.60069359073 
904, 5359.80006075922 
905, 5329.43472898795 
906, 5273.12296897347 
907, 5179.60410857352 
908, 5043.93284564135 
909, 4900.42497962663 
910, 4778.58460248312 
911, 4689.71635253994 
912, 4627.9442397359 
913, 4577.56398136031 
914, 4527.47383664296 
915, 4476.99525488705 
916, 4433.47673598229 
917, 4403.70402801409 
918, 4380.9000914301 
919, 4359.33272278824 
920, 4335.83248272879 
921, 4312.1423189608 
922, 4277.29729010185 
923, 4221.92285630141 
924, 4140.52649110522 
925, 4035.02801900329 
926, 3910.09280833754 
927, 3760.39145129972 
928, 3575.74482369566 
929, 3358.26968951255 
930, 3113.28902875387 
931, 2854.50201317366 
932, 2602.04663760964 
933, 2377.57827848906 
934, 2199.73152791938 
935, 2079.58356310497 
936, 2018.37760131112 
937, 2003.37235963323 
938, 2017.76978649541 
939, 2044.1835991912 
940, 2068.72697838809 
941, 2089.26585119024 
942, 2096.72080089864 
943, 2080.42052069555 
944, 2036.91683376655 
945, 1983.45407015261 
946, 1938.6856736358 
947, 1911.14441603131 
948, 1900.46789765876 
949, 1898.50560458238 
950, 1895.97237115972 
951, 1891.61291960267 
952, 1886.09828291308 
953, 1876.40959243573 
954, 1867.59033060401 
955, 1859.9975405376 
956, 1853.88671543157 
957, 1851.85558752005 
958, 1851.95001305676 
959, 1851.98754981228 
960, 1852.61357038199 
961, 1858.12703537694 
962, 1860.87435991072 
963, 1867.09499444777 
964, 1878.57120634594 
965, 1888.8373356041 
966, 1895.44032182295 
967, 1896.95679118706 
968, 1894.45028596035 
969, 1890.02166881896 
970, 1879.24499999379 
971, 1864.62734377069 
972, 1845.22748328651 
973, 1818.27459012947 
974, 1785.29215551826 
975, 1751.46477453072 
976, 1718.71371309302 
977, 1688.11989770949 
978, 1664.63825269826 
979, 1646.25757900697 
980, 1631.58893817143 
981, 1618.51122719841 
982, 1603.2530287562 
983, 1584.48374647829 
984, 1565.30402333942 
985, 1546.75208548804 
986, 1524.84498213472 
987, 1500.45531121458 
988, 1475.24323028652 
989, 1449.42595896781 
990, 1421.84740867367 
991, 1394.69252067905 
992, 1368.48413885033 
993, 1341.57945382679 
994, 1312.31013348024 
995, 1285.37878165525 
996, 1257.15989761788 
997, 1227.7171200747 
998, 1198.64458117287 
999, 1169.873842599 
1000, 1142.96807300354 
1001, 7262.46905007387 
1002, 7253.13169451205 
1003, 7245.75645400162 
1004, 7247.94133828307 
1005, 7255.48082402809 
1006, 7272.42193241053 
1007, 7300.53600938732 
1008, 7338.08236469291 
1009, 7374.79243965476 
1010, 7419.0565890243 
1011, 7459.49502005446 
1012, 7499.39809758677 
1013, 7538.06801219395 
1014, 7583.22181121364 
1015, 7623.92378895083 
1016, 7665.0085306007 
1017, 7712.74352357173 
1018, 7767.04103198846 
1019, 7814.59235846346 
1020, 7860.21759245075 
1021, 7914.642354979 
1022, 7964.48834639267 
1023, 8006.1339024729 
1024, 8057.50133507429 
1025, 8116.97377106725 
1026, 8165.42018243514 
1027, 8220.84065719638 
1028, 8274.19817025872 
1029, 8318.60128120135 
1030, 8364.93599490265 
1031, 8402.42519850721 
1032, 8436.80863839329 
1033, 8471.91575326238 
1034, 8504.77227756544 
1035, 8534.17191189074 
1036, 8561.97106366308 
1037, 8582.15922094694 
1038, 8601.4115462322 
1039, 8617.01829730443 
1040, 8629.69373420857 
1041, 8649.13460318824 
1042, 8668.39818627741 
1043, 8681.7368291409 
1044, 8693.03564230272 
1045, 8706.10326176398 
1046, 8721.24080762585 
1047, 8732.18795732584 
1048, 8742.84889835245 
1049, 8755.17887369171 
1050, 8762.37944016666 
1051, 8764.81215538039 
1052, 8776.8694155033 
1053, 8793.00997171591 
1054, 8809.03904116596 
1055, 8828.81651300453 
1056, 8847.69506146368 
1057, 8866.30186173601 
1058, 8894.18441006991 
1059, 8926.9131287451 
1060, 8964.63756528999 
1061, 9011.05650471685 
1062, 9059.94305591754 
1063, 9111.30987194393 
1064, 9168.30443138903 
1065, 9232.79969931739 
1066, 9297.59766438408 
1067, 9370.22473845267 
1068, 9451.92225551073 
1069, 9542.03377190308 
1070, 9649.20856905374 
1071, 9766.19453623984 
1072, 9878.58818749799 
1073, 9992.83428631313 
1074, 10113.1227169826 
1075, 10222.1896585676 
1076, 10326.6075037803 
1077, 10435.3277607582 
1078, 10529.9299848234 
1079, 10618.8479073225 
1080, 10695.0005524792 
1081, 10757.134200021 
1082, 10812.194893875 
1083, 10863.2366148163 
1084, 10920.1036189846 
1085, 10978.7774275521 
1086, 11028.572239642 
1087, 11079.1120026159 
1088, 11115.6188591623 
1089, 11144.7322758162 
1090, 11163.8902009905 
1091, 11173.6209789556 
1092, 11175.2018148636 
1093, 11166.0912656312 
1094, 11145.3205763467 
1095, 11119.0092182508 
1096, 11092.2630089038 
1097, 11059.0613280633 
1098, 11022.5497346873 
1099, 10992.7559117698 
1100, 10964.009823831 
1101, 10934.0490858746 
1102, 10916.8546235151 
1103, 10881.1397380021 
1104, 10842.394505979 
1105, 10789.7278474085 
1106, 10725.6195642854 
1107, 10632.1808391302 
1108, 10497.0348169924 
1109, 10321.836507097 
1110, 10074.8840933776 
1111, 9774.82189492463 
1112, 9428.69527278558 
1113, 9007.55560659129 
1114, 8588.70936719878 
1115, 8104.3879746707 
1116, 7664.67230624822 
1117, 7185.72890741976 
1118, 6782.01983666676 
1119, 6409.22505611484 
1120, 6071.11304838633 
1121, 5797.70002556341 
1122, 5573.78439302561 
1123, 5412.68178580726 
1124, 5306.39030126006 
1125, 5254.36678214582 
1126, 5281.71408636516 
1127, 5311.17050063698 
1128, 5390.35430557152 
1129, 5474.95520903017 
1130, 5592.65275256225 
1131, 5705.17896349009 
1132, 5821.96137004961 
1133, 5963.80903154291 
1134, 6113.43438703297 
1135, 6273.77890604352 
1136, 6503.34781569958 
1137, 6742.73653327801 
1138, 6971.72484211699 
1139, 7180.82022395641 
1140, 7321.06932645665 
1141, 7417.28984966534 
1142, 7466.18351689447 
1143, 7439.64257067177 
1144, 7428.47651187586 
1145, 7320.49554053191 
1146, 7323.69790632163 
1147, 7329.09402995713 
1148, 7419.95560494799 
1149, 7592.7426526338 
1150, 7804.61275807418 
1151, 8078.88283870136 
1152, 8389.22691816321 
1153, 8718.73975842128 
1154, 9103.71240328234 
1155, 9467.3647517639 
1156, 9858.74820589824 
1157, 10220.8013687956 
1158, 10582.8698704283 
1159, 10924.4349417676 
1160, 11255.5065099315 
1161, 11566.4228630536 
1162, 11873.9619433307 
1163, 12145.4349636334 
1164, 12395.6206874672 
1165, 12611.1552203489 
1166, 12805.497564025 
1167, 12971.1987751858 
1168, 13113.4117273795 
1169, 13231.8633269791 
1170, 13328.5209522302 
1171, 13395.7485091357 
1172, 13449.0302138436 
1173, 13478.9833086057 
1174, 13498.7319489362 
1175, 13496.116560509 
1176, 13487.9982264164 
1177, 13460.7999397696 
1178, 13437.3337510016 
