Wavelength,0212202100052.asd
350, 406.605586834283 
351, 428.060937595443 
352, 447.424481993263 
353, 464.808827887637 
354, 481.994177581848 
355, 499.509737745664 
356, 517.267564524201 
357, 534.257428864498 
358, 553.824658421805 
359, 575.383765461228 
360, 597.388682650286 
361, 624.886391426122 
362, 656.184031767387 
363, 688.87586865822 
364, 720.741855386832 
365, 755.658204164537 
366, 789.816253408508 
367, 819.479444992169 
368, 844.133108829985 
369, 857.450802717193 
370, 861.960818189262 
371, 862.542864883651 
372, 858.795128226647 
373, 858.620285259533 
374, 862.387097415488 
375, 865.266282413136 
376, 866.403894629272 
377, 868.601156678468 
378, 869.947725339477 
379, 861.836665304253 
380, 851.866419627044 
381, 842.428784416305 
382, 832.828480072244 
383, 817.009360561963 
384, 801.649885043735 
385, 791.280927499271 
386, 790.217905010989 
387, 808.50919734434 
388, 833.699213746522 
389, 854.767408968667 
390, 865.282682136796 
391, 875.994016081539 
392, 886.653267535658 
393, 895.695983143321 
394, 901.814805677537 
395, 922.264418960371 
396, 962.137706410494 
397, 1021.26520446992 
398, 1102.20847986558 
399, 1195.390883008 
400, 1292.11221645841 
401, 1385.63659653183 
402, 1477.50560551615 
403, 1552.58661585756 
404, 1604.79380575548 
405, 1648.91926738476 
406, 1684.15223966007 
407, 1715.23104104994 
408, 1749.30460886281 
409, 1796.51723536546 
410, 1851.59312091042 
411, 1911.74135663855 
412, 1976.19777985755 
413, 2040.97198807485 
414, 2104.87278083744 
415, 2165.99581024278 
416, 2220.1518463617 
417, 2272.63816683344 
418, 2325.46881019342 
419, 2378.34354197184 
420, 2425.96334135533 
421, 2475.1763615895 
422, 2529.20928276404 
423, 2587.05393127179 
424, 2638.08717173465 
425, 2678.93939397048 
426, 2706.03727636627 
427, 2713.01094095301 
428, 2707.33887861941 
429, 2712.31335086454 
430, 2747.82479118153 
431, 2801.31787794435 
432, 2870.13430135966 
433, 2969.49317629705 
434, 3120.60141223992 
435, 3275.8780514118 
436, 3396.43612001409 
437, 3475.98352861427 
438, 3558.46016781067 
439, 3641.63819468562 
440, 3720.89661698369 
441, 3795.32604309264 
442, 3888.77643540653 
443, 3985.61991228656 
444, 4074.8162545913 
445, 4150.61945064454 
446, 4213.22031802504 
447, 4270.08747817404 
448, 4329.2811574367 
449, 4399.09638447386 
450, 4458.75805160175 
451, 4493.15990757079 
452, 4496.20254659854 
453, 4489.15168331064 
454, 4468.53514691355 
455, 4440.61112648 
456, 4420.64924109337 
457, 4417.82165430806 
458, 4422.3834925511 
459, 4423.30544730676 
460, 4414.88971482771 
461, 4401.70613815664 
462, 4387.29169433648 
463, 4372.08702012295 
464, 4343.03980320224 
465, 4299.52110052045 
466, 4247.06719294622 
467, 4196.55490825195 
468, 4154.52940607986 
469, 4124.2830642838 
470, 4106.59342893959 
471, 4100.52287962346 
472, 4095.9423670324 
473, 4094.57177736443 
474, 4101.42324671952 
475, 4101.9931710243 
476, 4098.19310289031 
477, 4094.68226630236 
478, 4097.41343223711 
479, 4108.72684826336 
480, 4124.01004318965 
481, 4134.48772813304 
482, 4127.84535826554 
483, 4094.369189877 
484, 4028.40049849228 
485, 3932.03755634059 
486, 3836.20414558219 
487, 3767.07543361781 
488, 3745.41127876438 
489, 3787.24707683455 
490, 3854.09285577871 
491, 3907.76759638393 
492, 3924.45802099417 
493, 3931.31155272994 
494, 3939.11888409443 
495, 3955.88451876482 
496, 3984.18151720325 
497, 3990.75022293191 
498, 3977.48071076818 
499, 3951.29514808996 
500, 3913.21041819467 
501, 3884.82925200541 
502, 3872.64620787905 
503, 3877.62145467738 
504, 3910.65395032463 
505, 3957.87819619583 
506, 4005.64945089379 
507, 4042.97470681365 
508, 4068.53215789993 
509, 4087.72300091575 
510, 4107.32477085577 
511, 4134.24942515273 
512, 4149.99365501683 
513, 4148.33437598436 
514, 4130.11569686016 
515, 4091.60522056643 
516, 4042.48780169613 
517, 3996.25750222873 
518, 3968.13601178483 
519, 3997.11476846903 
520, 4087.79854459657 
521, 4218.8116677501 
522, 4329.24686607699 
523, 4409.16262316285 
524, 4462.34113724011 
525, 4502.17440959066 
526, 4519.85729874756 
527, 4523.83057447448 
528, 4539.98844652022 
529, 4627.99816364151 
530, 4742.96779334527 
531, 4838.09536847876 
532, 4876.48046675473 
533, 4885.25141319269 
534, 4900.86799470949 
535, 4943.77418611989 
536, 5014.1475085867 
537, 5063.30881678257 
538, 5083.49789972754 
539, 5081.99481074903 
540, 5073.3767948335 
541, 5071.83947685022 
542, 5093.32014836002 
543, 5148.67374773395 
544, 5210.80238143426 
545, 5264.46109348706 
546, 5301.05501073962 
547, 5318.99831264784 
548, 5330.13121449725 
549, 5344.39925744151 
550, 5367.09315265795 
551, 5389.88165639111 
552, 5406.63725759608 
553, 5418.49470669886 
554, 5431.88331343351 
555, 5439.10590347062 
556, 5428.61036266679 
557, 5394.91336242555 
558, 5343.72601134181 
559, 5297.43819453898 
560, 5272.35605311104 
561, 5276.97812289944 
562, 5300.10170111121 
563, 5313.53627088996 
564, 5303.12453637187 
565, 5273.19463579884 
566, 5232.28715439112 
567, 5191.78797349022 
568, 5158.6283372764 
569, 5126.55330509265 
570, 5083.41885571748 
571, 5040.79013407384 
572, 5023.22754351736 
573, 5025.2156581744 
574, 5021.12206711656 
575, 4995.02675419886 
576, 4950.5921259332 
577, 4909.4195972297 
578, 4884.50127324783 
579, 4882.87283122481 
580, 4902.76661628847 
581, 4940.66277655045 
582, 4986.73983156102 
583, 5025.65282595841 
584, 5048.06292731108 
585, 5041.62360600631 
586, 5005.23525882196 
587, 4962.78098421254 
588, 4913.55428480834 
589, 4847.62325868992 
590, 4762.18991375565 
591, 4729.34587282502 
592, 4749.04802223533 
593, 4787.38568473565 
594, 4778.12406264999 
595, 4747.08887184424 
596, 4707.89343180104 
597, 4668.27982379735 
598, 4622.11185109927 
599, 4567.15153144767 
600, 4509.54861175997 
601, 4460.56188588031 
602, 4418.15995379411 
603, 4392.33511591219 
604, 4385.25359797686 
605, 4384.58982953017 
606, 4370.85037059794 
607, 4341.89631321759 
608, 4304.57587274247 
609, 4269.27233559052 
610, 4235.98008620833 
611, 4205.00224202593 
612, 4177.16594597349 
613, 4149.39496796092 
614, 4118.09593945873 
615, 4083.42454444879 
616, 4053.45820222469 
617, 4032.69727813497 
618, 4027.29283261655 
619, 4039.71009128389 
620, 4051.33442515666 
621, 4047.16624049756 
622, 4022.32038272624 
623, 3983.83590372309 
624, 3942.22012900036 
625, 3903.04760072858 
626, 3868.23706699004 
627, 3834.47223345467 
628, 3802.07670667537 
629, 3772.3145905457 
630, 3748.23093350416 
631, 3742.17360901994 
632, 3746.79590693317 
633, 3754.7044505104 
634, 3763.36752445385 
635, 3767.73796498233 
636, 3768.09167160962 
637, 3765.87381093071 
638, 3758.7565262463 
639, 3745.92045546299 
640, 3723.56595616569 
641, 3687.34378242965 
642, 3657.92665314759 
643, 3639.19708149543 
644, 3626.90991467211 
645, 3607.63790798332 
646, 3579.54254843933 
647, 3545.50551595912 
648, 3511.67031915333 
649, 3485.42635500765 
650, 3462.27170068162 
651, 3444.92425635312 
652, 3442.78547087481 
653, 3431.29671436123 
654, 3388.40900247517 
655, 3309.43890248755 
656, 3223.76562883248 
657, 3160.62612320702 
658, 3156.38139481602 
659, 3231.39834832103 
660, 3308.97708696754 
661, 3351.80463658948 
662, 3357.68658734976 
663, 3361.15866910294 
664, 3354.97987531014 
665, 3346.84892881487 
666, 3343.6647089907 
667, 3342.45743961722 
668, 3341.24152676878 
669, 3338.35105249004 
670, 3332.77084647407 
671, 3325.70507007716 
672, 3318.64428714213 
673, 3314.1915127255 
674, 3316.30764856681 
675, 3321.94069428173 
676, 3327.69393940719 
677, 3331.29671931287 
678, 3334.34066641598 
679, 3338.00268887605 
680, 3341.16532845875 
681, 3341.6911619351 
682, 3343.30007360421 
683, 3339.86375999472 
684, 3316.42268161587 
685, 3247.85802794982 
686, 3126.31735714775 
687, 2961.896802675 
688, 2794.63100597339 
689, 2728.68392919549 
690, 2790.89611772406 
691, 2931.90902953267 
692, 3057.83411493955 
693, 3173.24101689346 
694, 3261.04666039915 
695, 3317.13103432491 
696, 3356.80661795996 
697, 3389.73528644986 
698, 3414.65892936588 
699, 3428.12978494997 
700, 3432.01896817982 
701, 3435.03251908462 
702, 3445.7737615518 
703, 3471.26589116907 
704, 3509.83612927211 
705, 3554.3510053335 
706, 3595.97520806948 
707, 3624.79075491864 
708, 3651.45927779234 
709, 3678.74058136276 
710, 3706.64656738426 
711, 3733.54090526123 
712, 3760.59541026787 
713, 3785.53578144204 
714, 3803.41785693069 
715, 3808.98457984981 
716, 3789.90978514193 
717, 3739.69408663395 
718, 3660.38544445823 
719, 3594.64816604167 
720, 3585.32155651938 
721, 3650.96898202932 
722, 3758.08310721227 
723, 3844.73869919819 
724, 3885.28185188878 
725, 3886.93597007989 
726, 3911.15834876515 
727, 3951.33785022235 
728, 3994.50834049077 
729, 4029.12378659336 
730, 4081.06762326313 
731, 4152.8770741485 
732, 4239.07434540285 
733, 4330.48502735577 
734, 4412.27477818004 
735, 4474.17423471639 
736, 4511.82104221666 
737, 4532.63134813695 
738, 4549.69383327467 
739, 4566.63516392307 
740, 4579.26012478605 
741, 4596.42327909335 
742, 4621.50040106546 
743, 4654.68250038847 
744, 4693.20258196807 
745, 4724.90952642582 
746, 4748.71657649275 
747, 4766.27968572754 
748, 4774.3064915924 
749, 4773.45063505023 
750, 4766.78622987494 
751, 4759.70218479626 
752, 4761.95624825681 
753, 4769.45660336981 
754, 4776.75368553837 
755, 4778.56895193947 
756, 4762.46517206665 
757, 4671.52043573213 
758, 4414.55131413463 
759, 3837.30486916686 
760, 2983.89302017016 
761, 2147.40252978449 
762, 1683.02169865527 
763, 1693.21449868002 
764, 1952.2187338796 
765, 2343.57913475082 
766, 2851.39997078008 
767, 3396.59783409134 
768, 3864.4919235098 
769, 4185.21719676831 
770, 4358.87819768037 
771, 4439.97021616308 
772, 4464.83301125743 
773, 4461.30455651304 
774, 4449.58887510082 
775, 4429.96127046956 
776, 4406.80847688753 
777, 4384.0040892893 
778, 4357.44946325166 
779, 4326.70880384795 
780, 4294.2757826519 
781, 4264.54259534724 
782, 4236.61563876639 
783, 4206.54661410521 
784, 4173.23916618068 
785, 4140.62533300671 
786, 4107.31875405043 
787, 4071.28763168236 
788, 4030.86527917284 
789, 3986.06803799232 
790, 3936.36888923411 
791, 3884.24695756994 
792, 3833.20866195068 
793, 3783.18705253753 
794, 3742.78949529023 
795, 3716.17241189145 
796, 3702.16811760781 
797, 3691.81498578766 
798, 3676.66619643718 
799, 3651.53156731956 
800, 3615.59751518234 
801, 3578.21611031878 
802, 3544.72864289601 
803, 3516.17348426126 
804, 3486.657371701 
805, 3461.44009932002 
806, 3440.09892830842 
807, 3418.52822600982 
808, 3387.42557604094 
809, 3350.62213840467 
810, 3312.42419970273 
811, 3274.89584981991 
812, 3227.82827428161 
813, 3164.65408506637 
814, 3084.29945434056 
815, 2992.11212131523 
816, 2905.09359595326 
817, 2835.33857329032 
818, 2791.265141579 
819, 2777.21116238443 
820, 2771.58113191653 
821, 2763.643949641 
822, 2749.01655957409 
823, 2728.93700439974 
824, 2717.00773064877 
825, 2721.40202811381 
826, 2738.49104175528 
827, 2736.17912175829 
828, 2710.92447607337 
829, 2674.95160563839 
830, 2646.77652081241 
831, 2627.32989150364 
832, 2611.32478901227 
833, 2596.83674016406 
834, 2585.49453351729 
835, 2580.66768588232 
836, 2576.90750636366 
837, 2569.09032169214 
838, 2554.31046800162 
839, 2534.19551393792 
840, 2509.8455010979 
841, 2482.16303982528 
842, 2451.67469184168 
843, 2421.90154126712 
844, 2391.71904657143 
845, 2360.08821243277 
846, 2329.99839577912 
847, 2294.14339826144 
848, 2252.01946146087 
849, 2205.66796315684 
850, 2156.88907108755 
851, 2101.12976543443 
852, 2043.84866574929 
853, 1994.36097395562 
854, 1955.27329414075 
855, 1922.77346800625 
856, 1903.49331617397 
857, 1906.71582847029 
858, 1917.47432537584 
859, 1913.63150387653 
860, 1890.89008984679 
861, 1861.05472313854 
862, 1826.63516477601 
863, 1786.06472188733 
864, 1740.18554242171 
865, 1693.31639245338 
866, 1648.72319614509 
867, 1609.6270227769 
868, 1580.89635536461 
869, 1569.08391550009 
870, 1563.32403491346 
871, 1552.87010960145 
872, 1532.45418078805 
873, 1506.03910165795 
874, 1479.66806560686 
875, 1453.55954133871 
876, 1426.74936938351 
877, 1399.67696274518 
878, 1373.99875599921 
879, 1349.29823331351 
880, 1324.77213388796 
881, 1300.43957486074 
882, 1277.75100947113 
883, 1256.1754370241 
884, 1234.75750552101 
885, 1213.88680384235 
886, 1192.34292519398 
887, 1170.11522771919 
888, 1148.00869127114 
889, 1127.46031639842 
890, 1108.82526041244 
891, 1089.43436555112 
892, 1065.6707220413 
893, 1036.44604746359 
894, 1004.61623340957 
895, 970.899588077197 
896, 935.168759294807 
897, 899.221461416919 
898, 866.698434150478 
899, 839.444309034513 
900, 818.080924444645 
901, 804.040429252096 
902, 797.008313452599 
903, 793.696395336844 
904, 789.452431563631 
905, 783.11033494878 
906, 773.677102811982 
907, 760.168509484215 
908, 742.166023509119 
909, 721.263776761062 
910, 703.625604612771 
911, 691.090066223498 
912, 681.764255662238 
913, 674.518076387339 
914, 667.136658965928 
915, 658.697563227811 
916, 649.930008206267 
917, 644.337006208404 
918, 641.048917184818 
919, 637.947158097776 
920, 633.071519777833 
921, 629.231204131769 
922, 622.946888039536 
923, 613.690358612768 
924, 602.972019719858 
925, 589.041755369185 
926, 571.378929262835 
927, 550.657659427162 
928, 527.511428229562 
929, 498.195927288326 
930, 464.345589390916 
931, 428.913399244032 
932, 395.278126937125 
933, 365.541578500157 
934, 341.063017781765 
935, 323.617603105023 
936, 314.350504495238 
937, 311.37617473516 
938, 312.726500869971 
939, 315.44991057414 
940, 317.185770652125 
941, 319.548961155835 
942, 320.086004960296 
943, 317.21407480288 
944, 310.661015602076 
945, 302.139534792019 
946, 294.393606209068 
947, 289.12778820232 
948, 286.633934532803 
949, 285.18370032035 
950, 283.573041554377 
951, 282.377227591897 
952, 281.538524010214 
953, 277.805455771675 
954, 276.229760966871 
955, 274.072254292261 
956, 269.795028935531 
957, 268.302829398512 
958, 265.590348421551 
959, 263.107240372579 
960, 262.16093809297 
961, 261.757080101325 
962, 258.343214262162 
963, 256.127009228338 
964, 256.248869375863 
965, 254.737619561165 
966, 252.148892059505 
967, 250.800052060679 
968, 249.737307152576 
969, 245.722975229537 
970, 242.541380182862 
971, 237.200671319544 
972, 230.391472029758 
973, 225.213132296315 
974, 221.89840326321 
975, 216.576627780467 
976, 209.570325749211 
977, 203.338905767024 
978, 199.336555117875 
979, 194.371237187897 
980, 189.308492936827 
981, 185.605305381379 
982, 182.416933277357 
983, 177.69344798951 
984, 173.351607088888 
985, 170.298874017601 
986, 166.238417650108 
987, 161.787414452579 
988, 157.439947330221 
989, 152.742857156267 
990, 146.730626181911 
991, 142.186526837014 
992, 138.781325414691 
993, 135.41242071334 
994, 131.210972362445 
995, 127.625477027529 
996, 123.729859916542 
997, 119.706456922587 
998, 115.782280940434 
999, 110.37366510978 
1000, 108.202194982671 
1001, 665.751803949046 
1002, 662.456082256438 
1003, 657.207798843133 
1004, 646.967818827237 
1005, 638.091268659638 
1006, 635.093136949245 
1007, 633.65515781739 
1008, 630.639139844632 
1009, 628.216392409135 
1010, 628.673581632061 
1011, 625.283262468892 
1012, 616.706274102014 
1013, 614.99050189503 
1014, 618.012815950324 
1015, 619.07313102379 
1016, 623.035743317814 
1017, 627.690160062659 
1018, 624.00609597443 
1019, 621.269883648415 
1020, 624.992832672035 
1021, 628.248927478887 
1022, 630.990777009429 
1023, 637.319429690624 
1024, 640.380586368805 
1025, 635.349650133306 
1026, 633.022587596304 
1027, 638.109892083091 
1028, 644.258066784957 
1029, 647.338991412662 
1030, 649.014808731296 
1031, 645.97415296742 
1032, 642.7177977355 
1033, 651.768526022944 
1034, 665.8774033781 
1035, 673.580051377697 
1036, 681.144884111103 
1037, 684.749137209084 
1038, 685.096459321388 
1039, 683.6611679433 
1040, 688.078995371954 
1041, 694.224446974481 
1042, 695.026083434045 
1043, 699.583290439088 
1044, 704.279540040227 
1045, 707.679206049538 
1046, 715.168025183072 
1047, 723.11556777123 
1048, 732.735013275802 
1049, 737.372924332508 
1050, 740.039214287756 
1051, 744.971235377958 
1052, 746.849656906527 
1053, 749.938728180847 
1054, 755.553990020704 
1055, 760.055959891877 
1056, 770.874425863158 
1057, 777.41441680956 
1058, 786.424919229705 
1059, 804.923983580619 
1060, 814.926169230796 
1061, 814.843176240908 
1062, 826.72105640854 
1063, 842.910362211627 
1064, 853.816383543857 
1065, 873.452530742713 
1066, 892.215124078453 
1067, 903.545130226811 
1068, 919.066043515697 
1069, 931.442946137518 
1070, 945.72848725982 
1071, 964.388219078331 
1072, 979.566177173769 
1073, 997.032513770206 
1074, 1019.98699750253 
1075, 1034.77346758427 
1076, 1046.52075705186 
1077, 1057.59281881522 
1078, 1063.74242903483 
1079, 1077.0349547193 
1080, 1092.51593920429 
1081, 1102.31162136466 
1082, 1115.97425483299 
1083, 1124.28222523749 
1084, 1126.51789387007 
1085, 1133.88809509082 
1086, 1138.83304762182 
1087, 1139.72514106947 
1088, 1143.84908423821 
1089, 1147.70684786624 
1090, 1153.64674890348 
1091, 1162.89729951135 
1092, 1171.18408039457 
1093, 1172.33994229037 
1094, 1175.57295059335 
1095, 1174.84703360587 
1096, 1164.90213867333 
1097, 1153.20269179575 
1098, 1144.14189692174 
1099, 1140.1011398527 
1100, 1136.32696384111 
1101, 1134.59949955165 
1102, 1144.02543640916 
1103, 1142.58170563322 
1104, 1136.66233328123 
1105, 1128.28663376044 
1106, 1115.24220308806 
1107, 1108.53356611172 
1108, 1095.69419427855 
1109, 1074.90664568829 
1110, 1055.64690188932 
1111, 1022.80120723419 
1112, 984.997874348654 
1113, 940.313291108676 
1114, 894.05726494535 
1115, 832.354497838991 
1116, 787.033776158603 
1117, 742.833507035304 
1118, 706.120065963739 
1119, 679.80224279472 
1120, 654.641474173102 
1121, 629.976996396131 
1122, 608.541608548142 
1123, 591.675760468651 
1124, 575.452988169508 
1125, 564.279683170567 
1126, 556.220219875295 
1127, 555.397395462395 
1128, 559.752965408086 
1129, 567.204948475645 
1130, 586.316750679963 
1131, 597.387244572658 
1132, 605.684937265168 
1133, 617.534952226858 
1134, 628.135928203299 
1135, 639.955622033355 
1136, 658.477112330375 
1137, 673.686427606282 
1138, 688.976619836747 
1139, 702.310858464027 
1140, 710.783540294009 
1141, 718.405669668823 
1142, 718.629177464514 
1143, 709.27792914414 
1144, 704.315689286245 
1145, 691.710511816244 
1146, 687.511230764585 
1147, 685.545946138011 
1148, 690.181394418572 
1149, 699.763206405149 
1150, 712.563399061361 
1151, 736.416259569002 
1152, 758.896360633324 
1153, 779.284317825807 
1154, 801.870428331498 
1155, 822.551540996838 
1156, 841.063295774732 
1157, 858.836509612265 
1158, 877.937580993731 
1159, 894.611551313084 
1160, 910.165369632422 
1161, 921.701440543735 
1162, 930.649783878091 
1163, 938.222543192513 
1164, 941.047932089345 
1165, 945.168303706047 
1166, 950.493376636882 
1167, 949.363241090044 
1168, 943.418816822282 
1169, 931.306221799763 
1170, 920.901857893982 
1171, 904.796737428295 
1172, 893.66107459272 
1173, 888.018368830288 
1174, 874.336268862407 
1175, 857.30743519359 
1176, 840.433922747537 
1177, 813.073454270238 
