Wavelength,0212202100085.asd
350, 2651.27762384859 
351, 2789.71284946334 
352, 2916.89562602101 
353, 3024.6674239142 
354, 3130.86504941762 
355, 3241.85140759165 
356, 3358.519306384 
357, 3476.07410141613 
358, 3596.81107976662 
359, 3724.13318443563 
360, 3864.65409958087 
361, 4037.31268747071 
362, 4236.87055168423 
363, 4452.45378636309 
364, 4670.52007417619 
365, 4893.10582720957 
366, 5107.61532799352 
367, 5296.63284409637 
368, 5439.41682112796 
369, 5525.57304708528 
370, 5556.71968293264 
371, 5546.50577243784 
372, 5524.72841391367 
373, 5516.12566008419 
374, 5525.11842822512 
375, 5540.6555281879 
376, 5554.8737985184 
377, 5564.07192514019 
378, 5555.71162468932 
379, 5505.4310951694 
380, 5440.30505995466 
381, 5367.20525908135 
382, 5285.06102611812 
383, 5183.01900133513 
384, 5080.91004508379 
385, 5010.4189339823 
386, 5008.46481462249 
387, 5109.41346904844 
388, 5257.8644242378 
389, 5389.6986247049 
390, 5447.80959332814 
391, 5510.36551757848 
392, 5572.87557517354 
393, 5623.77318548491 
394, 5663.22930647579 
395, 5777.45752715368 
396, 6006.27715608178 
397, 6365.14292310729 
398, 6867.3257833145 
399, 7441.12460142067 
400, 8032.11674002075 
401, 8607.12683468659 
402, 9151.53230092927 
403, 9601.81185407762 
404, 9929.57524353229 
405, 10179.038871521 
406, 10377.3783166924 
407, 10555.2397103886 
408, 10748.3750314976 
409, 11012.6491452961 
410, 11330.5886532362 
411, 11682.5561982489 
412, 12048.8679183461 
413, 12413.101587728 
414, 12774.7752746701 
415, 13123.4720906632 
416, 13425.6331724209 
417, 13713.8004700005 
418, 14010.7041408074 
419, 14320.9496643016 
420, 14591.3785768284 
421, 14860.928064497 
422, 15153.6736048959 
423, 15473.6705893393 
424, 15769.689185197 
425, 16003.4396699611 
426, 16142.0344162767 
427, 16153.7881767502 
428, 16092.9758491627 
429, 16102.571650149 
430, 16299.0422275188 
431, 16591.3427550183 
432, 16975.3196508141 
433, 17537.8923160826 
434, 18394.7538582046 
435, 19309.419321599 
436, 20009.5673612086 
437, 20438.236939755 
438, 20894.7844241935 
439, 21362.454020146 
440, 21802.0496790156 
441, 22199.5884604042 
442, 22715.5025316908 
443, 23260.8255168403 
444, 23761.7383741075 
445, 24168.7681970373 
446, 24497.7970798392 
447, 24792.9453776764 
448, 25103.7785069445 
449, 25489.2967345926 
450, 25818.7783248387 
451, 25998.9983823727 
452, 25991.9283290902 
453, 25923.6315862859 
454, 25778.5798557342 
455, 25596.1673799326 
456, 25465.8956706033 
457, 25433.7215267098 
458, 25441.2532828369 
459, 25425.7172284608 
460, 25360.275077054 
461, 25258.591726714 
462, 25147.5067226004 
463, 25043.1335167109 
464, 24878.7963365034 
465, 24624.2244527792 
466, 24308.7755900016 
467, 24018.3080962817 
468, 23773.4109020626 
469, 23589.5197204138 
470, 23473.7367691085 
471, 23431.2666706495 
472, 23402.6109969504 
473, 23394.7387297975 
474, 23431.9791030566 
475, 23423.9253313171 
476, 23397.0569797876 
477, 23380.7669813189 
478, 23393.7622287955 
479, 23470.8800813565 
480, 23579.9760621052 
481, 23661.110676163 
482, 23645.0342106138 
483, 23473.801473111 
484, 23109.7753517817 
485, 22560.8713607219 
486, 22024.4482026083 
487, 21643.4558562925 
488, 21531.0645390359 
489, 21780.4454590256 
490, 22182.9729687734 
491, 22517.4608231475 
492, 22638.0904139822 
493, 22682.0192580947 
494, 22745.6720312581 
495, 22874.7411937251 
496, 23056.1503188565 
497, 23115.0601795658 
498, 23052.9397393603 
499, 22909.4259001603 
500, 22719.8742104281 
501, 22573.2729534585 
502, 22513.4175380232 
503, 22563.8719516219 
504, 22772.6809751653 
505, 23064.9316676029 
506, 23364.5337218358 
507, 23606.850133033 
508, 23788.2377907704 
509, 23928.1374390859 
510, 24059.269019208 
511, 24238.0723800851 
512, 24364.5345546207 
513, 24390.5087783344 
514, 24302.3937026198 
515, 24104.9192766805 
516, 23838.7885101455 
517, 23576.9520209521 
518, 23422.8648487155 
519, 23620.0199727789 
520, 24188.9589498563 
521, 24992.0678732184 
522, 25666.4366767377 
523, 26169.1512885037 
524, 26521.5502435104 
525, 26788.0928568924 
526, 26906.9394287369 
527, 26955.6717684083 
528, 27096.0393953114 
529, 27635.9992895227 
530, 28343.3700632072 
531, 28943.9115797901 
532, 29210.6788358381 
533, 29300.2322864953 
534, 29433.2594118831 
535, 29728.4138478009 
536, 30176.3552714973 
537, 30500.2976151184 
538, 30652.9747923106 
539, 30676.8649901858 
540, 30669.3462877168 
541, 30698.9597758103 
542, 30857.5628293521 
543, 31216.0856092649 
544, 31629.1279985093 
545, 31991.6032205884 
546, 32246.1687192404 
547, 32395.9261973028 
548, 32494.0496966982 
549, 32606.1500663932 
550, 32775.1350554565 
551, 32951.755797898 
552, 33087.6793772968 
553, 33186.7725764435 
554, 33293.1339640982 
555, 33373.9432181082 
556, 33347.3943384138 
557, 33168.6924814155 
558, 32869.4391387022 
559, 32610.7312618709 
560, 32491.5282583395 
561, 32550.1249409014 
562, 32700.1356431913 
563, 32789.5505976471 
564, 32742.88258418 
565, 32582.6563132412 
566, 32358.3891075889 
567, 32128.983326095 
568, 31929.928082097 
569, 31731.3271899063 
570, 31472.2175325657 
571, 31225.2373805425 
572, 31134.357973809 
573, 31161.3451156675 
574, 31152.5836909138 
575, 31010.9334613616 
576, 30751.8829474383 
577, 30510.4131213724 
578, 30382.7011964658 
579, 30423.3843535444 
580, 30588.1812152837 
581, 30871.5913117939 
582, 31215.1954625222 
583, 31511.9166356356 
584, 31702.6352638215 
585, 31707.4848556259 
586, 31515.7747498444 
587, 31270.4852554374 
588, 30965.1528599925 
589, 30553.1718286929 
590, 30036.6519452039 
591, 29851.0246979609 
592, 29993.0431509072 
593, 30257.2787275741 
594, 30246.9137933082 
595, 30099.421570186 
596, 29887.8291712827 
597, 29661.780330847 
598, 29416.5603842174 
599, 29116.7074266411 
600, 28787.6878988537 
601, 28497.3859797867 
602, 28271.690424462 
603, 28151.3723399733 
604, 28135.2667687556 
605, 28159.973271239 
606, 28098.8962780619 
607, 27945.2340477082 
608, 27746.7963292915 
609, 27548.5126764742 
610, 27361.5827312404 
611, 27193.4192110077 
612, 27047.5063935817 
613, 26897.5461724444 
614, 26722.9382977851 
615, 26530.157833568 
616, 26380.1681337891 
617, 26288.1682284538 
618, 26289.698661425 
619, 26403.2124097201 
620, 26522.5765893435 
621, 26538.5658224167 
622, 26413.0098260328 
623, 26195.00646926 
624, 25945.4006150664 
625, 25707.5716630131 
626, 25503.9291160154 
627, 25320.7357963866 
628, 25136.8695214119 
629, 24963.3904790765 
630, 24839.8106777417 
631, 24852.5735232814 
632, 24944.8374211071 
633, 25061.8062904759 
634, 25188.4193060249 
635, 25285.1125407737 
636, 25353.308616423 
637, 25403.7656216202 
638, 25421.6184213143 
639, 25386.4725699633 
640, 25280.4256077648 
641, 25098.1456234314 
642, 24954.0048658602 
643, 24868.9433912284 
644, 24816.9242503324 
645, 24718.338046475 
646, 24563.2672762307 
647, 24368.8769638757 
648, 24170.9769818836 
649, 24007.4585108297 
650, 23881.8081088077 
651, 23817.1049578398 
652, 23849.0098970214 
653, 23797.846232196 
654, 23536.475230041 
655, 23042.7214599657 
656, 22469.9468558364 
657, 22052.7582878735 
658, 22052.7122024638 
659, 22609.1831882289 
660, 23184.7162862627 
661, 23517.9993888774 
662, 23587.6810611908 
663, 23623.1539268668 
664, 23601.620176825 
665, 23564.7497544493 
666, 23549.3924606217 
667, 23556.8437131895 
668, 23550.5381159267 
669, 23529.2985504353 
670, 23508.710713482 
671, 23463.93528847 
672, 23409.7158080064 
673, 23373.3009237682 
674, 23392.2162605043 
675, 23423.9677244339 
676, 23447.9937581342 
677, 23457.8704057839 
678, 23472.6869649844 
679, 23481.7007939789 
680, 23482.1934823312 
681, 23475.4296478854 
682, 23460.8278675576 
683, 23409.4894229831 
684, 23218.4045589433 
685, 22689.4152848237 
686, 21749.5441940952 
687, 20484.2524847673 
688, 19201.5289110958 
689, 18659.6344784462 
690, 19049.9736915019 
691, 20023.2350018179 
692, 20907.9322725573 
693, 21684.5774019824 
694, 22253.423685776 
695, 22604.5301258437 
696, 22847.5151744339 
697, 23051.8658706653 
698, 23192.2331492904 
699, 23229.9329610963 
700, 23186.7398150999 
701, 23144.3389743882 
702, 23158.9518256828 
703, 23262.5069947482 
704, 23463.1421281279 
705, 23695.499919116 
706, 23895.6280435647 
707, 24016.5146423967 
708, 24117.4858450179 
709, 24208.9048353259 
710, 24289.5499661838 
711, 24367.3568328341 
712, 24424.3347710443 
713, 24448.7324208308 
714, 24425.7460221304 
715, 24311.9863053769 
716, 24000.8433318383 
717, 23445.3618601625 
718, 22684.2385194864 
719, 22046.2603669424 
720, 21811.3773545357 
721, 22089.7125888235 
722, 22670.5619461526 
723, 23082.7931570794 
724, 23157.0160645231 
725, 22971.8755806176 
726, 22932.0160420596 
727, 23003.1118199005 
728, 23108.0492295043 
729, 23175.6260796365 
730, 23334.4924544342 
731, 23618.2645831164 
732, 24008.7779840842 
733, 24435.0707702816 
734, 24804.1439094946 
735, 25043.8195613532 
736, 25122.529586505 
737, 25111.8510906086 
738, 25083.9952536483 
739, 25057.4591854734 
740, 25008.5302842975 
741, 24999.7180002688 
742, 25043.1811955307 
743, 25130.8517387032 
744, 25239.4528771189 
745, 25318.3275378721 
746, 25358.0687003763 
747, 25364.4884406834 
748, 25340.3348335259 
749, 25268.275177727 
750, 25164.8240047018 
751, 25070.2874862466 
752, 25025.9945527771 
753, 25020.7940542005 
754, 25027.6550444915 
755, 25007.5849185735 
756, 24893.3094176421 
757, 24381.331164095 
758, 22985.692966433 
759, 19883.6585771904 
760, 15310.4832581897 
761, 10810.9362214732 
762, 8262.09929908771 
763, 8227.18192037415 
764, 9546.47665655488 
765, 11624.040116845 
766, 14381.4279482803 
767, 17404.7169203362 
768, 20043.7604248509 
769, 21893.1351560711 
770, 22940.4722403567 
771, 23466.3368764664 
772, 23680.2620054605 
773, 23743.7022898457 
774, 23747.1063375627 
775, 23704.2995008758 
776, 23642.0162219637 
777, 23579.913408693 
778, 23494.7560632295 
779, 23389.6436290216 
780, 23282.7954293727 
781, 23198.8030014095 
782, 23103.7163180993 
783, 22990.0912230859 
784, 22860.6117987289 
785, 22726.5222910176 
786, 22594.251040679 
787, 22442.5140533002 
788, 22250.3915514796 
789, 22016.6148763216 
790, 21770.6890600706 
791, 21520.7135583667 
792, 21268.5383833749 
793, 21030.864743081 
794, 20839.4953031958 
795, 20712.8439265085 
796, 20650.2352061114 
797, 20605.8983697551 
798, 20528.6882166755 
799, 20392.7962148065 
800, 20206.6108062714 
801, 19999.2233783439 
802, 19805.3456930893 
803, 19641.3432094146 
804, 19483.4499865511 
805, 19345.8789951428 
806, 19217.9811419542 
807, 19077.4374498708 
808, 18896.079058415 
809, 18671.7454574674 
810, 18419.6323362705 
811, 18154.3759992712 
812, 17833.3534255453 
813, 17412.7718455939 
814, 16887.0449719035 
815, 16295.6888226976 
816, 15744.4686681998 
817, 15312.1046247057 
818, 15047.2205455905 
819, 14962.8943196273 
820, 14942.9747133171 
821, 14895.0071319551 
822, 14779.2657983279 
823, 14645.2646913726 
824, 14555.1931183999 
825, 14566.7059077643 
826, 14666.9790116155 
827, 14640.8628628833 
828, 14482.8098578845 
829, 14266.4321661907 
830, 14096.5481271988 
831, 13985.0260695758 
832, 13905.6232945761 
833, 13842.9406850934 
834, 13795.3717496761 
835, 13772.5429000304 
836, 13763.5641739414 
837, 13744.517512033 
838, 13682.8051371613 
839, 13586.3611735627 
840, 13468.3258486699 
841, 13339.3238793861 
842, 13202.3828908805 
843, 13059.2176539011 
844, 12918.2753617629 
845, 12784.2378160384 
846, 12652.8099214509 
847, 12489.1090985189 
848, 12289.8429250511 
849, 12066.9533028662 
850, 11840.142893869 
851, 11576.7490153597 
852, 11305.18512922 
853, 11077.9868384705 
854, 10909.9159222788 
855, 10775.0028659302 
856, 10714.7973148216 
857, 10788.7613117344 
858, 10900.4054875067 
859, 10931.0416576358 
860, 10858.7699251167 
861, 10747.8683161538 
862, 10613.5331056535 
863, 10437.901439948 
864, 10222.4361055306 
865, 9996.51987616491 
866, 9786.95557030655 
867, 9611.38358544904 
868, 9496.76565840049 
869, 9482.1433018025 
870, 9511.95826802208 
871, 9508.69311772943 
872, 9435.19388401337 
873, 9331.60833073058 
874, 9219.18418100765 
875, 9105.83271719899 
876, 8993.5413202636 
877, 8883.04415624275 
878, 8776.05496112891 
879, 8670.76008629082 
880, 8564.84689071905 
881, 8457.84836091598 
882, 8351.46174223158 
883, 8249.3153354756 
884, 8153.14797234501 
885, 8057.91104821089 
886, 7954.74493202691 
887, 7846.88137975407 
888, 7740.602119077 
889, 7631.37160925374 
890, 7525.81190175388 
891, 7409.92111053739 
892, 7263.32858506242 
893, 7084.51434750885 
894, 6878.25320286426 
895, 6648.87529857591 
896, 6402.80621008182 
897, 6153.99359885766 
898, 5919.41784053747 
899, 5723.71005578713 
900, 5589.55614035566 
901, 5513.67286107379 
902, 5481.43647631709 
903, 5470.49373959592 
904, 5456.23341692419 
905, 5426.71020295204 
906, 5368.81022410111 
907, 5271.83950780043 
908, 5134.61516913771 
909, 4988.52464610501 
910, 4863.86588106403 
911, 4773.84576540795 
912, 4713.83306712052 
913, 4662.15276484043 
914, 4610.98653909256 
915, 4559.49560975998 
916, 4512.7984169472 
917, 4482.18662379248 
918, 4460.12550020791 
919, 4439.04239030893 
920, 4414.12859645649 
921, 4389.20890134441 
922, 4353.90157844784 
923, 4297.62106046087 
924, 4213.2088076961 
925, 4105.11601635593 
926, 3979.21655552605 
927, 3828.50359135986 
928, 3640.36296774198 
929, 3421.0709085127 
930, 3173.66303236071 
931, 2910.84683042399 
932, 2653.31650091707 
933, 2424.63245594632 
934, 2244.37009080746 
935, 2123.09211062514 
936, 2061.01195621334 
937, 2046.15015067572 
938, 2061.13685056539 
939, 2087.81706486369 
940, 2111.95301830352 
941, 2132.92766136264 
942, 2140.09801527278 
943, 2122.61547038191 
944, 2077.61688980574 
945, 2022.85916582029 
946, 1977.32788854568 
947, 1949.6252838019 
948, 1938.95757458356 
949, 1935.55612902911 
950, 1933.32008321392 
951, 1929.45432598921 
952, 1923.09048518158 
953, 1913.69418594075 
954, 1904.23373474191 
955, 1895.85082893061 
956, 1889.58463353787 
957, 1887.2481236347 
958, 1886.3110669197 
959, 1887.17334631466 
960, 1889.96892035667 
961, 1893.47498453324 
962, 1898.1883627706 
963, 1904.64238985211 
964, 1913.53325239947 
965, 1924.8941722622 
966, 1931.25481004867 
967, 1932.64865378212 
968, 1930.22299286744 
969, 1924.56656749257 
970, 1912.79427649675 
971, 1898.26533690922 
972, 1878.80393506898 
973, 1850.09274648943 
974, 1817.30747647989 
975, 1783.01367477935 
976, 1749.2699616229 
977, 1718.33693468065 
978, 1694.40778656304 
979, 1674.94631748599 
980, 1659.63641766764 
981, 1646.85005765357 
982, 1630.57270612174 
983, 1613.12897125714 
984, 1595.13730097896 
985, 1575.72330811294 
986, 1552.61046320145 
987, 1528.53634503753 
988, 1503.35781640781 
989, 1475.89730436436 
990, 1445.59264425132 
991, 1420.5839994566 
992, 1393.55226053458 
993, 1363.76550754181 
994, 1335.61385534296 
995, 1307.91242932709 
996, 1278.59382338432 
997, 1248.26215471353 
998, 1218.58087835457 
999, 1190.15569262629 
1000, 1161.41221235824 
1001, 7410.93040318821 
1002, 7399.77070328215 
1003, 7399.54417347719 
1004, 7407.24875847452 
1005, 7415.45655716675 
1006, 7427.86256976727 
1007, 7446.49923945878 
1008, 7472.39828026031 
1009, 7506.03008701072 
1010, 7554.30637037626 
1011, 7596.8233673194 
1012, 7643.53108905182 
1013, 7689.7494091803 
1014, 7730.66991419913 
1015, 7772.66371312771 
1016, 7814.9452855659 
1017, 7856.74799910718 
1018, 7904.76479372176 
1019, 7949.39959720057 
1020, 7998.41651872401 
1021, 8052.14300671752 
1022, 8104.53862691383 
1023, 8155.92111324488 
1024, 8212.22454670112 
1025, 8269.62461858018 
1026, 8326.1600459427 
1027, 8384.32148563751 
1028, 8439.92835158408 
1029, 8486.52835148233 
1030, 8526.92443288075 
1031, 8564.95881277946 
1032, 8597.04566160831 
1033, 8628.45764868891 
1034, 8661.38963119439 
1035, 8691.09877187062 
1036, 8718.09183046078 
1037, 8743.2280391247 
1038, 8766.9695482382 
1039, 8787.42830889868 
1040, 8806.90532009771 
1041, 8824.15877618691 
1042, 8837.12634479325 
1043, 8848.40184629264 
1044, 8860.77501439215 
1045, 8872.55478779739 
1046, 8884.20287027883 
1047, 8894.71963220161 
1048, 8905.56566829818 
1049, 8911.7650780554 
1050, 8922.83088840382 
1051, 8939.51345168674 
1052, 8955.03050860723 
1053, 8974.1256283517 
1054, 8987.37503025905 
1055, 8994.62055490533 
1056, 9007.6937205487 
1057, 9028.79005720168 
1058, 9054.92828394653 
1059, 9082.93135466266 
1060, 9119.66383342287 
1061, 9160.6380819165 
1062, 9210.74957011047 
1063, 9267.60539470483 
1064, 9338.21865740281 
1065, 9409.55108409946 
1066, 9484.11545165471 
1067, 9559.96811296021 
1068, 9636.24648138865 
1069, 9729.71046242975 
1070, 9831.56772352579 
1071, 9941.75166897977 
1072, 10060.8902571404 
1073, 10180.291692493 
1074, 10312.2219733113 
1075, 10425.261830235 
1076, 10535.1475954535 
1077, 10639.2364075462 
1078, 10725.0983768657 
1079, 10804.4740113709 
1080, 10881.8524243289 
1081, 10952.9571533195 
1082, 11017.1534301903 
1083, 11073.7170360147 
1084, 11125.1984641098 
1085, 11176.4783233564 
1086, 11225.0725096328 
1087, 11275.0865394699 
1088, 11314.0489019489 
1089, 11355.1289518219 
1090, 11375.4620335005 
1091, 11381.9349441213 
1092, 11379.8466217564 
1093, 11360.1067893862 
1094, 11335.96368884 
1095, 11309.6404721644 
1096, 11282.1080785859 
1097, 11261.2678420747 
1098, 11233.3119444962 
1099, 11204.1750810822 
1100, 11172.5728450594 
1101, 11142.1473404543 
1102, 11114.266134607 
1103, 11077.6002924121 
1104, 11048.0887665643 
1105, 10998.779285863 
1106, 10931.0901746449 
1107, 10833.3790934715 
1108, 10693.9084482126 
1109, 10513.5717264696 
1110, 10272.0629416139 
1111, 9977.76100163242 
1112, 9628.74360016035 
1113, 9203.70882198554 
1114, 8775.99350649189 
1115, 8269.11717992327 
1116, 7819.0689034257 
1117, 7333.43266665847 
1118, 6920.06383145053 
1119, 6539.94866355133 
1120, 6195.8402553181 
1121, 5911.77941808955 
1122, 5687.49414706703 
1123, 5528.89328386409 
1124, 5421.71956092306 
1125, 5372.80328837567 
1126, 5402.69164053517 
1127, 5436.10743299786 
1128, 5528.03157538692 
1129, 5616.76047496439 
1130, 5732.71751596675 
1131, 5847.6125956476 
1132, 5964.56646074739 
1133, 6106.89951737966 
1134, 6258.74722500933 
1135, 6422.28071815779 
1136, 6650.9395501388 
1137, 6891.29486426023 
1138, 7126.77260000525 
1139, 7347.21299679901 
1140, 7490.28544712593 
1141, 7588.09195955476 
1142, 7636.90341772079 
1143, 7600.12031158478 
1144, 7588.70567800824 
1145, 7487.71249623557 
1146, 7495.42074050361 
1147, 7507.90619816784 
1148, 7603.7272123733 
1149, 7778.2607534719 
1150, 7994.90563321938 
1151, 8279.69932875225 
1152, 8595.5603066336 
1153, 8929.31564848679 
1154, 9318.26015490945 
1155, 9686.58905749438 
1156, 10078.4180320436 
1157, 10446.0532517686 
1158, 10820.9819871593 
1159, 11169.1325406444 
1160, 11507.6157135139 
1161, 11818.7825495965 
1162, 12114.9473521946 
1163, 12384.7155084429 
1164, 12629.9120318457 
1165, 12850.9828095713 
1166, 13047.9031143495 
1167, 13219.3326828216 
1168, 13368.8172216625 
1169, 13495.0402137659 
1170, 13593.864688225 
1171, 13665.4235378108 
1172, 13721.2077588928 
1173, 13744.8907879671 
1174, 13764.0269296225 
1175, 13765.9126761084 
1176, 13761.1085336189 
1177, 13736.7493036755 
