Wavelength,0212202100022.asd
350, 3762.80713776004 
351, 3952.34673501942 
352, 4125.66559553052 
353, 4274.73582216841 
354, 4424.24494234469 
355, 4581.11462425651 
356, 4744.53698408849 
357, 4906.85826263215 
358, 5075.32744159121 
359, 5256.8303057905 
360, 5460.47181507692 
361, 5707.50873715583 
362, 5985.42663281095 
363, 6282.43009332372 
364, 6589.99432894359 
365, 6898.13717805206 
366, 7189.36487472284 
367, 7442.50837468509 
368, 7633.01966561861 
369, 7741.43015379074 
370, 7777.66939464815 
371, 7767.7233272554 
372, 7741.96578505628 
373, 7732.9509446549 
374, 7745.10793133173 
375, 7762.79310404723 
376, 7785.79799528728 
377, 7795.27978245828 
378, 7771.18593389669 
379, 7695.48332229797 
380, 7602.56366121999 
381, 7498.35984309813 
382, 7380.2066208114 
383, 7239.8375940701 
384, 7101.30878995231 
385, 7011.85736728621 
386, 7025.55699133089 
387, 7173.55221349515 
388, 7369.66496419079 
389, 7534.37757182219 
390, 7615.00024276304 
391, 7709.04033618874 
392, 7793.02248679988 
393, 7850.31273986892 
394, 7921.28998303864 
395, 8104.85835525256 
396, 8449.28109726585 
397, 8971.48104067639 
398, 9676.58268367118 
399, 10476.009993077 
400, 11298.4087427029 
401, 12094.6598959957 
402, 12840.498807681 
403, 13455.3010425496 
404, 13906.5839810828 
405, 14258.3408473608 
406, 14537.0876964089 
407, 14789.7913789366 
408, 15072.1148712814 
409, 15451.1369578758 
410, 15901.1477357045 
411, 16395.1116499448 
412, 16907.3698608386 
413, 17418.9863948282 
414, 17922.3283434074 
415, 18402.5085543901 
416, 18826.3000580378 
417, 19233.3864096484 
418, 19651.0845039469 
419, 20083.089953303 
420, 20457.1041337511 
421, 20838.8728232154 
422, 21256.6348394895 
423, 21699.7400579385 
424, 22102.359921937 
425, 22418.9578145639 
426, 22603.027728863 
427, 22593.370115744 
428, 22511.7004458219 
429, 22550.9707901551 
430, 22849.5825033755 
431, 23257.4663834629 
432, 23813.8944864631 
433, 24637.0000206511 
434, 25847.4836501484 
435, 27082.9953435417 
436, 28025.1940251253 
437, 28626.6200415669 
438, 29263.227317018 
439, 29913.1250011951 
440, 30529.5141833237 
441, 31097.6270454531 
442, 31821.4271706431 
443, 32571.7014792794 
444, 33254.0688241933 
445, 33816.7461970811 
446, 34269.5423533759 
447, 34683.1971571531 
448, 35127.3795390424 
449, 35664.6892697283 
450, 36098.898610695 
451, 36317.8750953295 
452, 36292.3881497547 
453, 36188.6825125291 
454, 35982.6420486745 
455, 35729.597829128 
456, 35555.9835992953 
457, 35508.5818932743 
458, 35511.2209670045 
459, 35482.7877103419 
460, 35384.9702924227 
461, 35243.1292521692 
462, 35086.9560048626 
463, 34928.6940263033 
464, 34683.3549934162 
465, 34317.6919240916 
466, 33876.3133146554 
467, 33476.5840343046 
468, 33136.7881007255 
469, 32884.6461598393 
470, 32734.2027079995 
471, 32682.628912645 
472, 32646.7833843757 
473, 32636.9974883097 
474, 32688.627627908 
475, 32675.8548092585 
476, 32642.315812887 
477, 32627.590626995 
478, 32645.9950937083 
479, 32753.1383914504 
480, 32895.7840928334 
481, 32984.8253081181 
482, 32938.6722718029 
483, 32666.659054265 
484, 32122.7171927846 
485, 31335.6565939271 
486, 30603.2972034056 
487, 30102.6556431846 
488, 29974.3687578804 
489, 30350.3785839445 
490, 30903.5000576185 
491, 31342.9434425317 
492, 31495.1698838401 
493, 31551.7180352597 
494, 31645.1327005656 
495, 31828.398821239 
496, 32067.538335878 
497, 32130.4454785788 
498, 32028.6360555361 
499, 31820.3948401612 
500, 31543.7172832127 
501, 31345.4896334177 
502, 31277.5730871275 
503, 31355.6140104477 
504, 31664.2584512389 
505, 32078.2889837251 
506, 32485.0767436529 
507, 32805.9733406611 
508, 33046.6719487572 
509, 33235.1218225958 
510, 33414.2241932001 
511, 33660.0954985651 
512, 33819.6428253402 
513, 33835.590993799 
514, 33707.1351864555 
515, 33411.716610122 
516, 33020.6630528457 
517, 32651.5733675575 
518, 32459.6453581447 
519, 32771.4197235903 
520, 33595.9970569069 
521, 34722.8828347294 
522, 35635.7006661589 
523, 36312.6495980709 
524, 36789.18570858 
525, 37135.7370326103 
526, 37275.4497309115 
527, 37333.685789809 
528, 37544.6694656781 
529, 38331.6218444001 
530, 39326.9226894638 
531, 40135.7029885339 
532, 40454.0757612869 
533, 40559.1039453161 
534, 40748.2079069111 
535, 41170.1929901582 
536, 41794.3435917045 
537, 42223.2773330924 
538, 42406.2697368186 
539, 42419.6172669775 
540, 42400.9714293029 
541, 42442.3310441685 
542, 42672.6712961463 
543, 43190.5533652086 
544, 43764.0653466085 
545, 44254.266120546 
546, 44588.9490072493 
547, 44772.4506029558 
548, 44893.8673877594 
549, 45045.6711493432 
550, 45281.2861928896 
551, 45517.8964357649 
552, 45695.6238932126 
553, 45825.0610861422 
554, 45969.6378305864 
555, 46077.1688028926 
556, 46025.4427689114 
557, 45751.8707456786 
558, 45316.2596497536 
559, 44955.5256901748 
560, 44805.9443823102 
561, 44909.7735546093 
562, 45129.8046254033 
563, 45248.0509087534 
564, 45167.6645805055 
565, 44943.4783555899 
566, 44625.222441803 
567, 44313.2389847415 
568, 44066.3102344121 
569, 43796.3929272051 
570, 43438.1804602549 
571, 43103.6755382164 
572, 42997.9335541207 
573, 43069.8189642428 
574, 43072.9501823355 
575, 42860.1702665274 
576, 42481.2701429467 
577, 42148.4180319957 
578, 41980.7084104644 
579, 42031.1957728344 
580, 42249.8969806067 
581, 42640.469593692 
582, 43114.0214886475 
583, 43498.2058934974 
584, 43727.977260344 
585, 43699.1439904739 
586, 43406.802236941 
587, 43072.8468615692 
588, 42673.644923548 
589, 42117.4617245866 
590, 41392.0976045138 
591, 41215.1618029893 
592, 41474.3726702505 
593, 41827.9896345657 
594, 41759.7973680906 
595, 41518.4386374054 
596, 41206.4890187395 
597, 40876.3167039393 
598, 40508.2869599057 
599, 40062.7606360173 
600, 39583.4665523077 
601, 39170.3987554268 
602, 38847.9576273255 
603, 38681.9443456751 
604, 38671.0574939069 
605, 38707.6872716235 
606, 38606.3561472711 
607, 38373.2176668619 
608, 38093.8685428193 
609, 37816.8899684458 
610, 37555.3802100567 
611, 37323.0181873001 
612, 37131.8281115749 
613, 36922.748104805 
614, 36674.4000323027 
615, 36404.7684805367 
616, 36196.9886734307 
617, 36065.1076852925 
618, 36072.2714551036 
619, 36257.8404075699 
620, 36421.0509629277 
621, 36426.6461795652 
622, 36235.9551752984 
623, 35920.557301195 
624, 35574.7385768862 
625, 35253.4476486788 
626, 34983.3358732512 
627, 34760.9963312084 
628, 34525.5679083678 
629, 34290.1716479758 
630, 34125.040338589 
631, 34138.4654166965 
632, 34253.1259201081 
633, 34396.422126891 
634, 34551.1064052387 
635, 34662.8777351204 
636, 34735.9023255396 
637, 34787.9957314435 
638, 34803.8767693572 
639, 34743.1650482237 
640, 34576.2013359828 
641, 34299.3730944071 
642, 34098.6114367579 
643, 33989.5493445303 
644, 33921.7828685754 
645, 33783.2641235501 
646, 33573.2400681613 
647, 33317.5105541801 
648, 33061.0562442079 
649, 32845.4574180463 
650, 32666.3485201635 
651, 32565.5146088011 
652, 32618.8465752102 
653, 32537.9552444499 
654, 32157.6338553849 
655, 31454.3681650391 
656, 30603.0766784266 
657, 30009.275104103 
658, 30064.1353241962 
659, 30934.353945539 
660, 31683.9839410062 
661, 32077.4136360483 
662, 32153.0316674722 
663, 32191.1537284731 
664, 32146.6006058041 
665, 32089.2391379793 
666, 32076.70696572 
667, 32079.4813586365 
668, 32062.9180530416 
669, 32031.2120530353 
670, 32004.1067029982 
671, 31930.5533191765 
672, 31846.3592510944 
673, 31797.2004443699 
674, 31828.2848816807 
675, 31867.3015950923 
676, 31892.0322180668 
677, 31901.7378613306 
678, 31917.8911479826 
679, 31922.0115083023 
680, 31913.3791386987 
681, 31900.0788832028 
682, 31877.4093501383 
683, 31800.9421371372 
684, 31534.3906028481 
685, 30825.307662064 
686, 29555.9849834754 
687, 27812.653838749 
688, 26034.2179189539 
689, 25465.3991127774 
690, 26110.2388226076 
691, 27433.5681780709 
692, 28599.886949983 
693, 29622.1115375332 
694, 30358.2826845422 
695, 30789.7712896565 
696, 31073.363298572 
697, 31303.2164266345 
698, 31445.5432777259 
699, 31453.4211054194 
700, 31380.2078384985 
701, 31308.9809682661 
702, 31306.043501814 
703, 31417.8466483617 
704, 31661.9932444087 
705, 31943.2154870169 
706, 32173.2585605845 
707, 32296.203999655 
708, 32397.3525721957 
709, 32489.0990875753 
710, 32568.3499928258 
711, 32653.1569606761 
712, 32707.3599491533 
713, 32721.0262990116 
714, 32689.9716457659 
715, 32556.2196370688 
716, 32190.0408222588 
717, 31529.1213410145 
718, 30608.8067129514 
719, 29845.7145520109 
720, 29588.1171361617 
721, 29966.2478120259 
722, 30701.0955005781 
723, 31177.0023242005 
724, 31226.3228720349 
725, 31012.4589246797 
726, 30998.1781537271 
727, 31093.2653536643 
728, 31193.5987174481 
729, 31246.4923826628 
730, 31430.9371720074 
731, 31773.9254900252 
732, 32235.1000149758 
733, 32720.226101682 
734, 33126.7075796107 
735, 33371.2575346477 
736, 33420.0837156422 
737, 33376.8003586704 
738, 33310.1510627658 
739, 33236.5349962872 
740, 33134.7615195364 
741, 33091.3645725797 
742, 33121.1010087714 
743, 33213.3318002776 
744, 33342.2269402639 
745, 33422.3857266088 
746, 33450.2429854971 
747, 33444.2200778521 
748, 33393.3956706565 
749, 33274.5158994878 
750, 33114.7054699464 
751, 32974.6870139708 
752, 32904.9861676263 
753, 32885.5320884782 
754, 32878.5230016518 
755, 32834.7139743619 
756, 32671.9634690542 
757, 31992.8862140451 
758, 30137.5796855234 
759, 25937.673780657 
760, 19851.4738538728 
761, 14056.4960409974 
762, 11070.4231217241 
763, 11295.0841443449 
764, 13142.6537360722 
765, 15868.0175654885 
766, 19465.6917321104 
767, 23298.6981585104 
768, 26553.9507824293 
769, 28760.4057842903 
770, 29962.6652711461 
771, 30532.8012501448 
772, 30738.2957344402 
773, 30775.3888275039 
774, 30743.4391508399 
775, 30654.0951924978 
776, 30543.849950823 
777, 30441.6121114673 
778, 30303.7806351467 
779, 30142.6589407149 
780, 29983.5621513001 
781, 29853.7418889042 
782, 29713.6833515386 
783, 29545.7821673091 
784, 29355.3522585126 
785, 29175.8705204262 
786, 28998.1829755207 
787, 28793.8662594352 
788, 28540.8246683708 
789, 28247.5460978077 
790, 27934.0625313888 
791, 27605.7132821961 
792, 27266.2304969719 
793, 26936.644564891 
794, 26673.6536572121 
795, 26506.8502341044 
796, 26430.917607388 
797, 26372.9323836225 
798, 26265.1675627621 
799, 26078.0642209732 
800, 25830.5497026094 
801, 25567.8236095224 
802, 25324.0908928141 
803, 25110.444104349 
804, 24897.0941499413 
805, 24707.8296904304 
806, 24532.9663743855 
807, 24345.638968049 
808, 24104.5410809204 
809, 23822.9943107596 
810, 23521.7114690076 
811, 23212.8217300456 
812, 22846.8250457983 
813, 22363.6335384997 
814, 21753.5855453184 
815, 21065.3701431055 
816, 20417.6708280729 
817, 19898.9912674927 
818, 19566.4481711599 
819, 19440.4040229832 
820, 19378.4074860024 
821, 19289.2267847855 
822, 19138.7255421825 
823, 18974.6691402061 
824, 18865.4065628145 
825, 18869.4731502442 
826, 18964.8273151793 
827, 18900.9406956741 
828, 18692.1076315902 
829, 18423.7855141009 
830, 18206.4603021442 
831, 18051.5923427867 
832, 17926.9066325006 
833, 17818.8968935898 
834, 17734.0087826259 
835, 17683.293569179 
836, 17648.6900011553 
837, 17599.5811939213 
838, 17499.2960862989 
839, 17356.6382503904 
840, 17191.2179353666 
841, 17015.7213748713 
842, 16826.1791644781 
843, 16633.2628433167 
844, 16442.8935334468 
845, 16257.315175185 
846, 16078.4605586321 
847, 15857.5755361452 
848, 15590.6092355608 
849, 15294.5532080036 
850, 14996.653226364 
851, 14652.8444023265 
852, 14300.330579478 
853, 14006.6997038832 
854, 13781.6347440709 
855, 13601.2843565646 
856, 13518.7671619201 
857, 13603.4104307065 
858, 13727.640523801 
859, 13746.9805888677 
860, 13637.8929593517 
861, 13482.5961436742 
862, 13293.5503001334 
863, 13055.2655502491 
864, 12773.5656433036 
865, 12483.3150375369 
866, 12208.4597592199 
867, 11975.4420028696 
868, 11822.2902439091 
869, 11797.8324630194 
870, 11818.5657572396 
871, 11796.9349268432 
872, 11693.136735564 
873, 11549.6842739151 
874, 11396.3953791955 
875, 11243.051720462 
876, 11091.6987471934 
877, 10943.9176029824 
878, 10800.0632891464 
879, 10659.1780405015 
880, 10518.7760212362 
881, 10373.2306404708 
882, 10230.223615057 
883, 10095.8297997518 
884, 9971.19255482209 
885, 9846.1325786944 
886, 9709.97890818796 
887, 9567.37504260734 
888, 9428.31367057664 
889, 9294.84054801545 
890, 9161.17295142337 
891, 9015.11658028966 
892, 8842.27685231584 
893, 8632.37815048317 
894, 8390.51071884146 
895, 8125.41361133629 
896, 7847.86059170233 
897, 7565.32069118105 
898, 7298.67877429905 
899, 7074.1054110926 
900, 6913.97833469662 
901, 6814.68279138482 
902, 6764.28551942867 
903, 6738.51358938173 
904, 6708.81006199499 
905, 6666.81502312633 
906, 6595.76883795782 
907, 6481.05379547617 
908, 6320.03398446948 
909, 6154.05056512768 
910, 6012.64947408853 
911, 5907.12529765755 
912, 5831.63008094745 
913, 5769.18549721736 
914, 5707.49224953819 
915, 5643.38271378808 
916, 5582.31000484036 
917, 5537.76587655033 
918, 5499.23359511165 
919, 5461.07148610964 
920, 5422.64102682949 
921, 5381.43433815196 
922, 5328.44916205775 
923, 5255.25010251783 
924, 5155.89756738849 
925, 5030.87144466658 
926, 4884.6391697246 
927, 4710.56777974976 
928, 4497.04222948942 
929, 4248.38779211432 
930, 3967.30819105358 
931, 3668.61349463272 
932, 3376.31911375589 
933, 3115.01393811979 
934, 2907.4651348186 
935, 2765.23617749276 
936, 2688.41528453691 
937, 2667.2394069952 
938, 2679.6695701103 
939, 2704.25549097798 
940, 2725.12396490466 
941, 2742.13584086141 
942, 2744.58671828078 
943, 2719.65582801902 
944, 2663.03017514262 
945, 2595.19870460237 
946, 2538.45306499183 
947, 2502.31709442282 
948, 2485.51572567883 
949, 2477.72013325304 
950, 2469.19903335829 
951, 2456.9172997565 
952, 2441.57974807796 
953, 2425.1504294093 
954, 2408.38382344125 
955, 2392.62548502517 
956, 2379.00751661062 
957, 2368.00073162227 
958, 2359.18832368112 
959, 2352.40794104597 
960, 2347.71774030961 
961, 2345.27578699161 
962, 2341.82381600026 
963, 2340.74460857498 
964, 2342.03173331071 
965, 2340.54091112132 
966, 2335.87753852297 
967, 2327.99024292017 
968, 2315.70076181171 
969, 2297.46188653717 
970, 2276.65209503889 
971, 2251.84190701314 
972, 2220.63785264153 
973, 2181.3011372982 
974, 2135.43598825359 
975, 2089.4395560116 
976, 2045.37220121709 
977, 2003.80943550978 
978, 1969.32011250237 
979, 1939.32640565454 
980, 1912.9042740585 
981, 1888.6538107956 
982, 1863.04137632214 
983, 1836.09782221329 
984, 1808.69175141503 
985, 1780.25520671604 
986, 1747.80773575155 
987, 1711.97619192722 
988, 1677.22855202154 
989, 1643.75491372928 
990, 1607.22603825719 
991, 1570.77746469958 
992, 1535.49324987689 
993, 1501.10088497844 
994, 1466.50739713269 
995, 1430.97932863462 
996, 1396.11872243722 
997, 1361.50954047907 
998, 1326.22945334945 
999, 1290.92132159689 
1000, 1256.45701688933 
1001, 7821.48941762918 
1002, 7796.56212084753 
1003, 7774.26297302851 
1004, 7760.0673199636 
1005, 7748.38079294006 
1006, 7746.70879933654 
1007, 7758.61484043227 
1008, 7778.63812930024 
1009, 7798.15118462166 
1010, 7827.02432909691 
1011, 7851.68716002929 
1012, 7874.4094858411 
1013, 7896.0336531453 
1014, 7931.18110998292 
1015, 7968.72515541505 
1016, 8004.72902205586 
1017, 8039.99918083531 
1018, 8066.82793574498 
1019, 8097.60605501335 
1020, 8134.51445516899 
1021, 8178.20010236979 
1022, 8224.12284539397 
1023, 8276.39008213309 
1024, 8324.76943475326 
1025, 8377.6413836003 
1026, 8432.63378471882 
1027, 8480.13477279539 
1028, 8528.26969394051 
1029, 8574.21312768552 
1030, 8609.35458040619 
1031, 8651.9190836248 
1032, 8693.77661237738 
1033, 8720.70326964565 
1034, 8752.80562221323 
1035, 8785.17071339404 
1036, 8814.6102730288 
1037, 8840.38334182717 
1038, 8875.16395675997 
1039, 8904.55672331959 
1040, 8933.25218047186 
1041, 8961.72433811452 
1042, 8984.07208202483 
1043, 9008.77436134274 
1044, 9027.15243481848 
1045, 9043.87562064654 
1046, 9069.28977997464 
1047, 9093.58039874461 
1048, 9118.56486243497 
1049, 9143.79560634907 
1050, 9176.71550147386 
1051, 9209.71600146409 
1052, 9240.74962817914 
1053, 9277.77194708902 
1054, 9311.61036144175 
1055, 9348.43875461798 
1056, 9389.61667910135 
1057, 9426.5747832467 
1058, 9467.09686241537 
1059, 9509.27226604202 
1060, 9565.60472990339 
1061, 9635.16368755656 
1062, 9707.40151321797 
1063, 9789.21400363245 
1064, 9875.06440498481 
1065, 9961.87963290109 
1066, 10052.104680732 
1067, 10150.9888810425 
1068, 10263.0929753036 
1069, 10386.9336939482 
1070, 10514.8587338186 
1071, 10651.5447023851 
1072, 10791.364985458 
1073, 10927.754900327 
1074, 11066.7859286432 
1075, 11197.5043954679 
1076, 11328.3766825297 
1077, 11449.1922985705 
1078, 11556.7667157222 
1079, 11657.4709863058 
1080, 11741.5227939825 
1081, 11816.0642603649 
1082, 11885.7369196546 
1083, 11953.43979743 
1084, 12021.4930510769 
1085, 12085.255972238 
1086, 12145.354026149 
1087, 12207.6102139859 
1088, 12250.4893519085 
1089, 12288.999670685 
1090, 12313.7212560003 
1091, 12320.1659844438 
1092, 12322.2553944673 
1093, 12319.4430541208 
1094, 12300.7668100524 
1095, 12279.2098132831 
1096, 12252.3924456271 
1097, 12224.8404889875 
1098, 12197.8366235551 
1099, 12171.8710630313 
1100, 12149.3774427238 
1101, 12121.0601508005 
1102, 12096.1092457435 
1103, 12057.9080169136 
1104, 12018.3068858411 
1105, 11965.0185686747 
1106, 11901.046708158 
1107, 11807.5392442115 
1108, 11668.6667826692 
1109, 11492.8895635154 
1110, 11242.5585549523 
1111, 10934.3251463541 
1112, 10578.6712582824 
1113, 10146.4843390341 
1114, 9714.30352609508 
1115, 9210.52614348848 
1116, 8756.37280327451 
1117, 8264.49094400462 
1118, 7846.96016989237 
1119, 7461.01823241965 
1120, 7111.25513970644 
1121, 6818.86339537943 
1122, 6581.23416010423 
1123, 6418.98872224484 
1124, 6309.75162567688 
1125, 6260.89967899504 
1126, 6304.41225888715 
1127, 6340.3074960488 
1128, 6428.32797966142 
1129, 6514.87060752389 
1130, 6627.91103707259 
1131, 6738.48881255306 
1132, 6849.06700000208 
1133, 6984.17780020537 
1134, 7124.32971953643 
1135, 7283.82287393254 
1136, 7512.53501122912 
1137, 7745.27010178382 
1138, 7977.17732255325 
1139, 8194.73673070113 
1140, 8338.52976040798 
1141, 8440.78517059556 
1142, 8487.86957259815 
1143, 8456.24125510049 
1144, 8437.77175299382 
1145, 8313.20824049742 
1146, 8306.32800799061 
1147, 8304.07671392915 
1148, 8383.69389397792 
1149, 8544.37163230539 
1150, 8748.79018643189 
1151, 9009.03254593118 
1152, 9300.1640214067 
1153, 9600.05400891691 
1154, 9948.75166980096 
1155, 10269.2402125876 
1156, 10602.5682495045 
1157, 10914.8593106244 
1158, 11228.7761087376 
1159, 11514.9817069728 
1160, 11791.3896891867 
1161, 12040.0310057162 
1162, 12271.6421192682 
1163, 12473.8024713454 
1164, 12651.1389124622 
1165, 12801.5044918787 
1166, 12925.0580786313 
1167, 13025.1798485846 
1168, 13102.820770254 
1169, 13156.523923247 
1170, 13189.479590218 
1171, 13195.9817185845 
1172, 13189.0250799331 
1173, 13159.4141853132 
1174, 13118.4962269793 
1175, 13055.0370649633 
1176, 12990.0439649183 
1177, 12903.5893486322 
