Wavelength,0212202100046.asd
350, 2422.44124674495 
351, 2544.67981652601 
352, 2658.56153273562 
353, 2755.85075587546 
354, 2848.75042620367 
355, 2946.57672849159 
356, 3052.77295635461 
357, 3156.45197429208 
358, 3263.67824756855 
359, 3378.53445341137 
360, 3506.15439493319 
361, 3661.5614989589 
362, 3838.47318980936 
363, 4029.22618787089 
364, 4226.53775165306 
365, 4424.50179339537 
366, 4613.12556050841 
367, 4778.8350062886 
368, 4903.29818190595 
369, 4975.68783193617 
370, 5000.49966647492 
371, 4992.26464674824 
372, 4971.38149402737 
373, 4961.84190979567 
374, 4967.95744054853 
375, 4979.34131666589 
376, 4991.03387726333 
377, 4996.28074491311 
378, 4983.58676501309 
379, 4935.8791903069 
380, 4877.55113140744 
381, 4811.17459448506 
382, 4734.1050002165 
383, 4643.47151737699 
384, 4550.86684510259 
385, 4486.17069199763 
386, 4486.52410980591 
387, 4579.1243864539 
388, 4709.54273168897 
389, 4821.46578664975 
390, 4870.79964921665 
391, 4925.49056088158 
392, 4979.61115873353 
393, 5022.82659422107 
394, 5059.80333791057 
395, 5165.88070614369 
396, 5375.71789651 
397, 5701.46919613659 
398, 6149.51331015905 
399, 6659.23516924477 
400, 7183.48986126491 
401, 7692.15012294212 
402, 8174.92778322736 
403, 8571.4507944863 
404, 8856.70359730486 
405, 9080.24274164875 
406, 9257.59445740231 
407, 9415.27943128023 
408, 9587.02002524637 
409, 9824.33578445695 
410, 10107.8776645165 
411, 10420.1707602984 
412, 10746.4774365816 
413, 11070.0625009221 
414, 11389.8410226359 
415, 11697.0903607899 
416, 11964.1609003138 
417, 12218.8571027555 
418, 12481.1268267054 
419, 12754.8272851714 
420, 12990.9384625527 
421, 13231.6534526609 
422, 13494.9512741871 
423, 13774.0615861711 
424, 14029.7494858807 
425, 14232.0994927318 
426, 14351.7018187502 
427, 14353.1890550983 
428, 14297.6382341023 
429, 14310.786427022 
430, 14489.6124017828 
431, 14745.0340456897 
432, 15085.500030745 
433, 15589.2632946613 
434, 16350.9302012723 
435, 17149.3505631116 
436, 17758.6470883846 
437, 18136.4594809828 
438, 18536.967576298 
439, 18946.0807090526 
440, 19332.6133344485 
441, 19686.1202252706 
442, 20139.7973490818 
443, 20615.0913392487 
444, 21050.3637815186 
445, 21407.2690618426 
446, 21693.7467152432 
447, 21951.6534309162 
448, 22225.6237880113 
449, 22562.6696289236 
450, 22844.6862747287 
451, 22993.1379960195 
452, 22979.7825219559 
453, 22916.0867447634 
454, 22784.1050977356 
455, 22618.7463650999 
456, 22502.8049520398 
457, 22473.2684630126 
458, 22477.4877865686 
459, 22459.7543324731 
460, 22396.4941393767 
461, 22302.981926908 
462, 22202.1850327838 
463, 22106.0504421127 
464, 21954.5977352153 
465, 21724.1437507852 
466, 21442.6992747251 
467, 21186.6493160823 
468, 20969.9775043779 
469, 20807.1605072595 
470, 20705.5479977917 
471, 20668.6760683828 
472, 20643.1638897192 
473, 20632.6450454435 
474, 20657.1655924528 
475, 20647.0781249512 
476, 20621.4877013095 
477, 20604.4237895679 
478, 20615.0091496146 
479, 20681.7038913295 
480, 20774.1542177237 
481, 20839.3509837127 
482, 20821.874456697 
483, 20663.7961342766 
484, 20333.9756752538 
485, 19846.5576367295 
486, 19375.7506166585 
487, 19044.3842531893 
488, 18949.7798387418 
489, 19174.0609157144 
490, 19523.1541621777 
491, 19807.6832434354 
492, 19907.9332797164 
493, 19943.7978601341 
494, 20000.4211715783 
495, 20113.9955131826 
496, 20266.4471997976 
497, 20310.7928959778 
498, 20249.9182325609 
499, 20118.8524339883 
500, 19947.359427823 
501, 19818.5403729842 
502, 19768.8492122584 
503, 19814.7882692004 
504, 19999.9464048265 
505, 20256.3050242082 
506, 20515.4431943969 
507, 20720.1540066913 
508, 20874.9261224872 
509, 20996.8940127339 
510, 21112.0312672052 
511, 21264.9154173379 
512, 21369.9372584357 
513, 21387.5602749929 
514, 21308.1130952175 
515, 21131.2256737892 
516, 20893.1707177588 
517, 20660.3100487255 
518, 20527.478577381 
519, 20707.687924441 
520, 21213.2535846926 
521, 21917.6424835059 
522, 22502.2322258791 
523, 22936.2575678545 
524, 23239.9239973549 
525, 23466.9467501376 
526, 23563.4766338582 
527, 23602.3056767692 
528, 23728.0512514705 
529, 24209.4052493626 
530, 24830.7881809645 
531, 25349.0219031336 
532, 25568.8233682373 
533, 25640.1071840027 
534, 25756.0088595104 
535, 26017.2434783823 
536, 26410.2262491147 
537, 26688.6331485355 
538, 26815.7754461172 
539, 26833.0094517499 
540, 26821.3815676276 
541, 26844.041302698 
542, 26984.6998473143 
543, 27306.6470830913 
544, 27666.8154768952 
545, 27979.546825184 
546, 28198.2976114004 
547, 28320.7449955212 
548, 28403.8960170932 
549, 28503.876866716 
550, 28652.8910375581 
551, 28802.4096254951 
552, 28918.7955400306 
553, 29005.9338659948 
554, 29096.0982633054 
555, 29165.1068838814 
556, 29137.8643181284 
557, 28974.0068241399 
558, 28707.8600006533 
559, 28480.6654600616 
560, 28379.522794217 
561, 28436.9915573637 
562, 28570.5651419616 
563, 28645.6745575317 
564, 28599.1475622535 
565, 28458.0022350006 
566, 28258.0784886617 
567, 28055.297143957 
568, 27884.1725149382 
569, 27710.36783661 
570, 27480.3034112765 
571, 27260.8012909949 
572, 27182.7215213921 
573, 27209.7587505106 
574, 27201.9189382511 
575, 27071.7928134278 
576, 26835.7805382289 
577, 26622.7046121818 
578, 26512.5446144892 
579, 26546.1058030632 
580, 26691.0227860752 
581, 26943.2776540001 
582, 27248.1249791508 
583, 27504.9119195873 
584, 27666.9314964718 
585, 27665.154841543 
586, 27492.4119151647 
587, 27281.4687445847 
588, 27020.5146156388 
589, 26662.3078078454 
590, 26206.4083221045 
591, 26061.629607363 
592, 26200.7782592733 
593, 26430.3480409371 
594, 26409.0967267334 
595, 26269.069090023 
596, 26079.392729458 
597, 25882.6864244138 
598, 25662.2616348351 
599, 25392.4520872772 
600, 25099.6851630386 
601, 24845.7789240317 
602, 24647.3643819458 
603, 24542.5097272121 
604, 24530.8946381607 
605, 24552.7627686011 
606, 24495.5158156755 
607, 24356.494512039 
608, 24181.6064174626 
609, 24007.9272418487 
610, 23842.6789613187 
611, 23694.4520339898 
612, 23572.0494944797 
613, 23440.0845098143 
614, 23284.268772966 
615, 23114.7039505426 
616, 22982.7835214908 
617, 22901.0108848111 
618, 22903.5383477362 
619, 23008.8498876809 
620, 23109.3511682795 
621, 23116.1965818465 
622, 23000.8168976554 
623, 22806.0824202992 
624, 22585.1477160385 
625, 22376.2825513626 
626, 22198.704612873 
627, 22037.6974850262 
628, 21875.6025231474 
629, 21721.8507697911 
630, 21610.8188296783 
631, 21624.9876631823 
632, 21707.8168869315 
633, 21808.0843195452 
634, 21918.034514533 
635, 22001.20464288 
636, 22057.8237797783 
637, 22097.6677440716 
638, 22113.0296100349 
639, 22082.9056686908 
640, 21988.0631817492 
641, 21821.3275115209 
642, 21696.1756133122 
643, 21624.793115854 
644, 21579.1811208144 
645, 21493.5910634928 
646, 21359.1571419517 
647, 21190.5324502531 
648, 21018.7062388942 
649, 20878.200987477 
650, 20767.5585358758 
651, 20708.4103212866 
652, 20739.1869388775 
653, 20692.2836722854 
654, 20460.1432362425 
655, 20025.6446820301 
656, 19512.3956431513 
657, 19143.9037677739 
658, 19156.6777236981 
659, 19667.8209065407 
660, 20160.8512109656 
661, 20436.1772440676 
662, 20492.0788576697 
663, 20523.2160036932 
664, 20500.5836729879 
665, 20464.935219489 
666, 20452.9879374015 
667, 20460.6203396325 
668, 20454.292189753 
669, 20434.6134107869 
670, 20417.705324163 
671, 20374.53192747 
672, 20326.4232473036 
673, 20298.9480373073 
674, 20315.514377415 
675, 20342.1916883123 
676, 20361.8626041299 
677, 20369.5481286098 
678, 20383.515337845 
679, 20391.1394472075 
680, 20390.0439362478 
681, 20383.3256293386 
682, 20370.5512782927 
683, 20326.0820805417 
684, 20160.0673161212 
685, 19700.511258688 
686, 18880.4820904174 
687, 17765.173238417 
688, 16627.9678297949 
689, 16190.0000717658 
690, 16561.638053575 
691, 17421.0315961271 
692, 18193.8550304448 
693, 18874.9612614287 
694, 19371.5439478102 
695, 19673.2200430653 
696, 19883.6046174789 
697, 20057.4646373934 
698, 20172.9408374789 
699, 20199.8012907144 
700, 20166.0527556675 
701, 20132.7048556503 
702, 20146.1903736249 
703, 20236.8442080616 
704, 20411.2506403338 
705, 20614.5825038224 
706, 20789.9838260477 
707, 20890.3339803776 
708, 20979.9683021441 
709, 21063.1552293711 
710, 21133.4297529871 
711, 21206.6983096778 
712, 21261.1223384406 
713, 21287.6134536222 
714, 21277.6005203159 
715, 21185.8181736075 
716, 20930.5108627894 
717, 20473.5842277311 
718, 19838.579868933 
719, 19308.4952343533 
720, 19124.0976818412 
721, 19379.3544519249 
722, 19890.6693436243 
723, 20242.6409809153 
724, 20300.7051715737 
725, 20150.8984755541 
726, 20132.4351279723 
727, 20202.2177751332 
728, 20292.1485841339 
729, 20352.4588042922 
730, 20495.0957459608 
731, 20743.7884765961 
732, 21079.4123962877 
733, 21445.180934375 
734, 21759.1609269369 
735, 21960.6264283258 
736, 22024.511873139 
737, 22011.1581892069 
738, 21986.3032019176 
739, 21964.5295374257 
740, 21920.2569789365 
741, 21911.5010808656 
742, 21947.7202794332 
743, 22022.0627840743 
744, 22118.1049837854 
745, 22184.2435715703 
746, 22215.6248254286 
747, 22221.4056129675 
748, 22198.3237718444 
749, 22131.455702293 
750, 22036.9694890034 
751, 21952.292321914 
752, 21912.0801656876 
753, 21903.3556710478 
754, 21903.1267174992 
755, 21882.5896308675 
756, 21778.8259329909 
757, 21324.8977900667 
758, 20089.5616739668 
759, 17330.8979006435 
760, 13289.2406169133 
761, 9357.02204715865 
762, 7195.43920976516 
763, 7213.03982545498 
764, 8385.27065824451 
765, 10204.58798978 
766, 12628.3351124388 
767, 15264.6480894271 
768, 17546.8437376557 
769, 19130.1705394824 
770, 20017.9071814668 
771, 20457.1085929355 
772, 20630.3315995197 
773, 20676.2459687718 
774, 20670.3153014078 
775, 20623.588075852 
776, 20561.5323657086 
777, 20503.0628260903 
778, 20418.8739682286 
779, 20319.1577407087 
780, 20220.4914066347 
781, 20139.0703833941 
782, 20051.7775117614 
783, 19948.5723197402 
784, 19829.9741216361 
785, 19708.8422694619 
786, 19588.9447281105 
787, 19451.1482409239 
788, 19278.7638277128 
789, 19077.8070698464 
790, 18863.5878963459 
791, 18642.5609412471 
792, 18419.6068004515 
793, 18208.0222873115 
794, 18038.6413738497 
795, 17927.8719006126 
796, 17872.995061232 
797, 17831.4711709332 
798, 17762.6389995922 
799, 17644.1341550736 
800, 17477.6844352922 
801, 17297.6793842483 
802, 17131.5242598498 
803, 16989.7591633805 
804, 16852.123991891 
805, 16732.1927706961 
806, 16620.9703194801 
807, 16498.2803644021 
808, 16335.6452524132 
809, 16141.8819377085 
810, 15929.759982407 
811, 15706.0017119593 
812, 15437.7921941628 
813, 15084.6326811865 
814, 14641.2428313527 
815, 14143.4853013636 
816, 13680.3724518952 
817, 13316.2098210563 
818, 13091.0115586394 
819, 13016.8587627281 
820, 12993.8368534823 
821, 12946.8492902327 
822, 12845.4339409669 
823, 12732.112428576 
824, 12657.8338821337 
825, 12668.1946587268 
826, 12749.6505252743 
827, 12720.3112321808 
828, 12582.8483051379 
829, 12398.484339351 
830, 12251.1206592758 
831, 12153.573237538 
832, 12080.6354660561 
833, 12020.2934950944 
834, 11975.2784177297 
835, 11953.6362634323 
836, 11941.1531467459 
837, 11917.0125450095 
838, 11858.6837233385 
839, 11771.9743420223 
840, 11668.2659357267 
841, 11554.8889800293 
842, 11429.5370863082 
843, 11303.1307330357 
844, 11179.8218777658 
845, 11059.7444053426 
846, 10941.6135768481 
847, 10796.6041908067 
848, 10619.5605985697 
849, 10419.8751177907 
850, 10223.0888421365 
851, 9993.32774571335 
852, 9755.23392906508 
853, 9556.94522161145 
854, 9407.3960783935 
855, 9286.87092927664 
856, 9231.82063068663 
857, 9292.44393108649 
858, 9384.46077122293 
859, 9404.07658055818 
860, 9333.68563615662 
861, 9231.87589774154 
862, 9109.89942613099 
863, 8953.31171915239 
864, 8764.05275138016 
865, 8567.12677250042 
866, 8380.68384364582 
867, 8222.34567624386 
868, 8118.27614685946 
869, 8103.45218170883 
870, 8122.63765421291 
871, 8112.57696738202 
872, 8044.19082452718 
873, 7949.49044215322 
874, 7847.71303374661 
875, 7745.00799000462 
876, 7643.32004218677 
877, 7546.50098879556 
878, 7450.03252461664 
879, 7353.79203104519 
880, 7258.04449083154 
881, 7159.94281708158 
882, 7064.11224389219 
883, 6973.60630849108 
884, 6888.52949044007 
885, 6802.97357183103 
886, 6711.68845753373 
887, 6614.74368603497 
888, 6516.28910225516 
889, 6425.19890994953 
890, 6333.52109426931 
891, 6230.71678697803 
892, 6106.73275953436 
893, 5958.33778276842 
894, 5784.21044101168 
895, 5589.56055360367 
896, 5384.46017849006 
897, 5179.97969857624 
898, 4987.76285418527 
899, 4825.86908913246 
900, 4712.02809231407 
901, 4647.65136563253 
902, 4616.69435746094 
903, 4602.35756683274 
904, 4588.61900102098 
905, 4561.02107615538 
906, 4512.35680310465 
907, 4432.65319715286 
908, 4317.36733921643 
909, 4197.16871593133 
910, 4095.86877318982 
911, 4021.23056418918 
912, 3967.29940996114 
913, 3926.26732530388 
914, 3884.02596044891 
915, 3839.30209651944 
916, 3800.76355523282 
917, 3772.51612069625 
918, 3750.30296051184 
919, 3730.25684633293 
920, 3709.49620780617 
921, 3685.88209291273 
922, 3653.81480242968 
923, 3605.61059813957 
924, 3534.81250968682 
925, 3447.07997109898 
926, 3342.73492300743 
927, 3216.28298864977 
928, 3060.97747179098 
929, 2883.17856630872 
930, 2681.05191348714 
931, 2464.80025222617 
932, 2253.63290061406 
933, 2065.62097098716 
934, 1918.33106943403 
935, 1819.05323120099 
936, 1765.83043179232 
937, 1751.20452991162 
938, 1762.75941274876 
939, 1784.42969296552 
940, 1802.27822331044 
941, 1815.86693891887 
942, 1819.36207241706 
943, 1803.69658753344 
944, 1765.34513165145 
945, 1719.91980213309 
946, 1681.97247824896 
947, 1657.86344733356 
948, 1646.99558724522 
949, 1643.09700782283 
950, 1639.31926114447 
951, 1634.44840719244 
952, 1628.36321613777 
953, 1617.72176439377 
954, 1607.12465869081 
955, 1597.83945875273 
956, 1590.77548094124 
957, 1587.9150683336 
958, 1583.14710788712 
959, 1579.7101556586 
960, 1579.28179763945 
961, 1577.97979947543 
962, 1578.26065661755 
963, 1581.46125288298 
964, 1586.29094375461 
965, 1589.12861808722 
966, 1591.91640712452 
967, 1590.58050205779 
968, 1583.87843927656 
969, 1573.96210077119 
970, 1562.34522289532 
971, 1546.07121759879 
972, 1524.58427973615 
973, 1499.03254675903 
974, 1468.07905984081 
975, 1436.63442641764 
976, 1406.34210474819 
977, 1378.1351082254 
978, 1357.57549101112 
979, 1338.69923186943 
980, 1321.35418118124 
981, 1305.86932394842 
982, 1288.61497130403 
983, 1271.79253148334 
984, 1252.89760142547 
985, 1231.5538658042 
986, 1211.97280839726 
987, 1187.65455060275 
988, 1162.37561805938 
989, 1138.67280585336 
990, 1115.4555548469 
991, 1091.6809522285 
992, 1067.35453300513 
993, 1041.99854862723 
994, 1015.61851023905 
995, 992.356464888279 
996, 968.218549388032 
997, 943.385420038475 
998, 919.312392092126 
999, 894.419972879055 
1000, 870.667383361667 
1001, 5473.34055504293 
1002, 5454.41842367488 
1003, 5438.57315954315 
1004, 5427.455050639 
1005, 5423.08603743728 
1006, 5420.75674227813 
1007, 5425.70512092065 
1008, 5434.41027175158 
1009, 5444.58080918737 
1010, 5457.66630984624 
1011, 5474.72966222393 
1012, 5496.37874998889 
1013, 5516.29289917223 
1014, 5538.14518073899 
1015, 5556.35257838614 
1016, 5572.6975287905 
1017, 5595.06065637286 
1018, 5625.66667582549 
1019, 5653.80258033169 
1020, 5678.59354287524 
1021, 5706.15749726296 
1022, 5734.90207023928 
1023, 5760.22984743913 
1024, 5790.46551369694 
1025, 5829.91738430874 
1026, 5868.46931830148 
1027, 5896.34946354744 
1028, 5926.59604918324 
1029, 5959.4883926221 
1030, 5982.81395058797 
1031, 6009.29514094086 
1032, 6035.96219463045 
1033, 6055.93956988695 
1034, 6077.01428661208 
1035, 6100.22387201203 
1036, 6125.51171890019 
1037, 6153.02984635372 
1038, 6176.31319013113 
1039, 6198.03631533666 
1040, 6223.53053802944 
1041, 6241.60291036164 
1042, 6257.2229432638 
1043, 6277.04791023816 
1044, 6293.15513767524 
1045, 6307.53031367568 
1046, 6322.48764329984 
1047, 6338.27836310628 
1048, 6353.45941728997 
1049, 6368.63865233805 
1050, 6385.61724443604 
1051, 6409.52668222283 
1052, 6440.6398113846 
1053, 6474.81184991198 
1054, 6507.88253636042 
1055, 6541.32842306291 
1056, 6568.0652404347 
1057, 6591.81685648973 
1058, 6620.4493535663 
1059, 6654.45850812502 
1060, 6696.16901408057 
1061, 6745.92795019957 
1062, 6796.19730190625 
1063, 6852.10429872279 
1064, 6911.45867758982 
1065, 6970.1018629027 
1066, 7037.30256344207 
1067, 7109.42327013423 
1068, 7185.64718304438 
1069, 7271.51042852466 
1070, 7365.60865991516 
1071, 7468.39821838192 
1072, 7573.20485307591 
1073, 7672.4953043863 
1074, 7770.10256759122 
1075, 7865.39022644703 
1076, 7957.85481086233 
1077, 8051.01647939811 
1078, 8133.33011491278 
1079, 8214.02827071201 
1080, 8282.01601337476 
1081, 8333.29398077453 
1082, 8382.77723946022 
1083, 8429.4724746574 
1084, 8471.52310101231 
1085, 8514.71581431487 
1086, 8553.51600363886 
1087, 8591.14519553297 
1088, 8622.8718428976 
1089, 8656.19346392024 
1090, 8673.71794492697 
1091, 8684.15437543206 
1092, 8684.92035931595 
1093, 8667.06055786465 
1094, 8646.06014988614 
1095, 8620.9829266469 
1096, 8594.32282381998 
1097, 8574.15489889643 
1098, 8547.0101625097 
1099, 8525.22564443957 
1100, 8509.31787207878 
1101, 8486.43040742402 
1102, 8470.29730106373 
1103, 8438.56536214568 
1104, 8402.10323613609 
1105, 8350.51715071959 
1106, 8295.54318587664 
1107, 8217.05366499391 
1108, 8107.96203538355 
1109, 7978.25439026712 
1110, 7798.99295650447 
1111, 7573.84062928043 
1112, 7309.91916135411 
1113, 6989.39137472829 
1114, 6667.31678346325 
1115, 6282.73632775081 
1116, 5946.24419157237 
1117, 5590.58298743342 
1118, 5285.64746652337 
1119, 5006.28937116638 
1120, 4753.08403409847 
1121, 4539.47810041007 
1122, 4365.90843944446 
1123, 4247.35797322923 
1124, 4169.97007625614 
1125, 4133.77450133928 
1126, 4163.47686058776 
1127, 4185.8385283933 
1128, 4242.56514880493 
1129, 4301.85777117008 
1130, 4381.03382320916 
1131, 4458.08231979054 
1132, 4536.29910457427 
1133, 4634.06378901105 
1134, 4734.77665262881 
1135, 4851.22189337027 
1136, 5017.35398764738 
1137, 5191.69610769779 
1138, 5366.77179272144 
1139, 5522.81321016618 
1140, 5621.44867440751 
1141, 5687.31658903546 
1142, 5711.29138717236 
1143, 5663.53270241396 
1144, 5641.07742292983 
1145, 5551.49059844312 
1146, 5543.1753868929 
1147, 5544.31274420391 
1148, 5602.12176321083 
1149, 5718.30019983794 
1150, 5860.73675741387 
1151, 6043.79153422506 
1152, 6250.89881958261 
1153, 6462.97944261635 
1154, 6704.89492887243 
1155, 6936.2138573583 
1156, 7183.28719009828 
1157, 7411.35613661964 
1158, 7645.47212382313 
1159, 7855.25547323031 
1160, 8052.7935168371 
1161, 8232.23757307651 
1162, 8400.7853789524 
1163, 8546.71339855948 
1164, 8674.82300261185 
1165, 8781.5238897501 
1166, 8869.0946681218 
1167, 8936.3135472354 
1168, 8984.45315689917 
1169, 9012.01238685329 
1170, 9025.17579862101 
1171, 9015.05723976555 
1172, 8998.9575843995 
1173, 8964.7658209189 
1174, 8928.63403422876 
1175, 8882.98889215354 
1176, 8831.74421636016 
1177, 8770.24659533597 
