Wavelength,0212202100126.asd
350, 2752.61975434329 
351, 2895.93807022066 
352, 3030.82878079589 
353, 3142.92116707724 
354, 3251.35176793941 
355, 3366.28684883113 
356, 3490.31940046686 
357, 3611.94165582682 
358, 3736.13830000795 
359, 3868.15279066078 
360, 4015.63059933072 
361, 4196.27535853407 
362, 4402.8047809302 
363, 4625.82052899282 
364, 4855.9845023315 
365, 5086.65591821063 
366, 5307.13417666169 
367, 5502.49711827313 
368, 5652.01906820325 
369, 5741.51328303159 
370, 5774.43578816701 
371, 5766.62300338669 
372, 5743.03396870717 
373, 5734.93921731356 
374, 5746.34457771542 
375, 5761.71473125728 
376, 5778.06544907941 
377, 5788.29910041627 
378, 5778.8872477773 
379, 5728.91446597987 
380, 5663.09971297954 
381, 5586.73707034285 
382, 5499.31407442824 
383, 5396.38238014213 
384, 5289.18635758894 
385, 5213.41787748074 
386, 5214.24299425231 
387, 5320.06223543617 
388, 5475.44936789107 
389, 5613.56037486104 
390, 5672.00648211867 
391, 5736.74009500478 
392, 5802.01289765326 
393, 5854.71167407474 
394, 5896.49735998886 
395, 6017.30890103302 
396, 6257.01684122403 
397, 6630.50029377648 
398, 7156.05610169232 
399, 7755.20959173687 
400, 8369.65053443289 
401, 8965.89659752949 
402, 9534.89865594173 
403, 10004.8153559377 
404, 10344.0132544801 
405, 10607.3305808889 
406, 10816.402160155 
407, 11001.3553131243 
408, 11200.3651664738 
409, 11476.5863038948 
410, 11810.3977836331 
411, 12179.8956803633 
412, 12563.1980260757 
413, 12940.9074753116 
414, 13316.9357092937 
415, 13682.6301129995 
416, 13999.8269315281 
417, 14302.07686563 
418, 14611.486077723 
419, 14932.1265303908 
420, 15211.3827097048 
421, 15494.0163123999 
422, 15803.3819985943 
423, 16138.1292584352 
424, 16447.6027118256 
425, 16691.9876103065 
426, 16837.0533130885 
427, 16850.2582594667 
428, 16787.4185033411 
429, 16798.4081704173 
430, 17005.2266986802 
431, 17310.5329213719 
432, 17712.2830518431 
433, 18302.1643967697 
434, 19200.164261379 
435, 20151.9415994488 
436, 20881.4905642581 
437, 21332.1881128806 
438, 21806.0259971107 
439, 22294.364397408 
440, 22755.09128271 
441, 23170.4182203319 
442, 23710.0003529256 
443, 24280.3973725782 
444, 24804.8001943751 
445, 25232.1737300089 
446, 25575.5707132806 
447, 25883.6338625984 
448, 26210.0083142175 
449, 26615.4830793663 
450, 26958.0895804457 
451, 27143.5580941655 
452, 27137.0565187134 
453, 27068.2960470536 
454, 26917.1039016863 
455, 26725.3936229738 
456, 26591.3211728617 
457, 26560.5997015688 
458, 26570.1206199895 
459, 26553.5101621743 
460, 26484.4842388221 
461, 26378.7523768606 
462, 26264.7973984168 
463, 26158.5481595866 
464, 25985.4938482076 
465, 25717.3026251233 
466, 25387.6069272725 
467, 25087.7982772889 
468, 24832.6079504521 
469, 24640.0242336526 
470, 24520.5622763893 
471, 24481.6402381897 
472, 24453.889423551 
473, 24444.5433214083 
474, 24482.4663832447 
475, 24473.907180346 
476, 24446.8800456498 
477, 24431.7267482518 
478, 24446.8728440965 
479, 24526.183543414 
480, 24638.9276600472 
481, 24724.7715365947 
482, 24707.4347305652 
483, 24526.5043067507 
484, 24144.025596819 
485, 23570.4056532505 
486, 23013.4816152587 
487, 22616.2427857007 
488, 22495.9072473409 
489, 22758.7803699896 
490, 23180.6047957842 
491, 23530.0531749805 
492, 23656.2347361413 
493, 23703.1321175036 
494, 23771.4466152674 
495, 23907.3980130283 
496, 24095.0689165004 
497, 24155.6314229324 
498, 24091.4733303675 
499, 23943.0048959816 
500, 23743.1937729818 
501, 23589.5005703212 
502, 23525.8077670543 
503, 23574.2152557697 
504, 23793.1703094786 
505, 24099.4777257582 
506, 24411.0428509166 
507, 24661.3286665869 
508, 24851.210896185 
509, 25001.133701023 
510, 25142.9773609283 
511, 25330.0894100229 
512, 25460.7311230891 
513, 25487.5019905831 
514, 25398.2376773443 
515, 25192.0930261878 
516, 24911.986995497 
517, 24636.461710993 
518, 24477.7626554326 
519, 24683.3321378036 
520, 25278.3126658205 
521, 26122.3948510015 
522, 26826.6436142561 
523, 27350.5930297917 
524, 27717.6972351277 
525, 27993.9315352617 
526, 28116.8240990692 
527, 28166.3516956387 
528, 28311.0346486604 
529, 28874.2524847622 
530, 29615.9912523503 
531, 30245.3342633893 
532, 30520.2228464439 
533, 30612.9924940258 
534, 30752.2642650026 
535, 31060.172704253 
536, 31526.1579468239 
537, 31866.2286644967 
538, 32026.8694977409 
539, 32048.7424626729 
540, 32037.0194855734 
541, 32065.9007349687 
542, 32231.4152104454 
543, 32606.2553700181 
544, 33039.7467969225 
545, 33417.7706604717 
546, 33679.7317385455 
547, 33834.5606393445 
548, 33938.0872940429 
549, 34057.2439694721 
550, 34235.1009218467 
551, 34421.6780743274 
552, 34564.1716873539 
553, 34666.2760239496 
554, 34775.596899858 
555, 34860.5064704388 
556, 34833.0933119793 
557, 34644.0861998203 
558, 34325.2965670822 
559, 34052.9379414377 
560, 33930.3526087877 
561, 33993.5295932735 
562, 34147.7223096144 
563, 34240.0697331542 
564, 34192.8162379397 
565, 34023.9255160472 
566, 33786.6157778958 
567, 33546.2525837004 
568, 33341.1232372669 
569, 33130.8066431376 
570, 32857.552133947 
571, 32598.7663974891 
572, 32503.719051116 
573, 32534.4547259161 
574, 32528.2639792802 
575, 32381.8067118819 
576, 32110.7498612662 
577, 31860.4995075473 
578, 31728.9419194154 
579, 31770.1417014657 
580, 31944.5997809193 
581, 32243.5518240268 
582, 32603.3500757317 
583, 32910.5721790963 
584, 33107.2847868936 
585, 33109.9818688935 
586, 32906.6188883474 
587, 32645.8648109021 
588, 32320.3687972177 
589, 31880.0467494826 
590, 31327.3697879081 
591, 31129.5503110493 
592, 31278.9330008829 
593, 31556.5282772097 
594, 31545.4224728736 
595, 31389.3619868846 
596, 31169.3425054908 
597, 30940.3306792075 
598, 30691.4565468562 
599, 30383.0948016068 
600, 30042.3038382845 
601, 29742.5734040513 
602, 29511.624086566 
603, 29388.2272137481 
604, 29370.8670154671 
605, 29400.6547733506 
606, 29339.7151152633 
607, 29179.0657060861 
608, 28969.4461066757 
609, 28765.0918864749 
610, 28570.1147198163 
611, 28393.8778880606 
612, 28249.8852169541 
613, 28094.4446841723 
614, 27911.328013936 
615, 27712.5655480416 
616, 27556.2170739706 
617, 27460.9759675956 
618, 27464.4288777513 
619, 27585.1730093897 
620, 27711.4734812479 
621, 27728.9117451863 
622, 27597.6843222529 
623, 27369.5421506531 
624, 27109.696401845 
625, 26861.921402763 
626, 26648.2089656513 
627, 26455.5153540856 
628, 26266.5934661289 
629, 26088.8155610851 
630, 25955.4430563645 
631, 25970.8679688578 
632, 26070.3304558503 
633, 26192.2961739824 
634, 26322.3555272742 
635, 26426.610648595 
636, 26501.9338030486 
637, 26553.5211613045 
638, 26571.760609584 
639, 26535.6574640867 
640, 26425.2650731027 
641, 26233.0669394616 
642, 26084.5828414608 
643, 25996.6554590132 
644, 25939.2917980171 
645, 25835.5279119853 
646, 25669.0912118506 
647, 25457.8701554743 
648, 25242.7782045673 
649, 25072.2690004041 
650, 24943.1759406328 
651, 24877.6759481119 
652, 24916.7513628721 
653, 24864.9492245497 
654, 24593.458480274 
655, 24080.9503623389 
656, 23476.3581965115 
657, 23039.8089245485 
658, 23046.3126330953 
659, 23636.1536559421 
660, 24242.2198679933 
661, 24591.8796471421 
662, 24664.5779839164 
663, 24702.514794213 
664, 24681.1683015732 
665, 24644.1978229032 
666, 24629.6171028239 
667, 24635.7921076268 
668, 24629.4895997098 
669, 24609.3167071975 
670, 24588.4341814792 
671, 24538.8266968718 
672, 24481.3200420882 
673, 24445.6016098608 
674, 24465.3611706674 
675, 24498.9519425221 
676, 24525.4668271403 
677, 24537.1608840442 
678, 24548.8455012627 
679, 24558.0530943816 
680, 24560.4917679825 
681, 24550.7878447911 
682, 24535.7266418472 
683, 24480.838327359 
684, 24277.8671841228 
685, 23726.5007277959 
686, 22739.2708534981 
687, 21408.3053848518 
688, 20062.3983941642 
689, 19501.0686957624 
690, 19911.6492100477 
691, 20923.7722877593 
692, 21836.3775508329 
693, 22634.1721575269 
694, 23211.2201591735 
695, 23561.1297911324 
696, 23811.9581963687 
697, 24032.0437578468 
698, 24183.3210708894 
699, 24216.4468184199 
700, 24161.815132152 
701, 24108.7995197519 
702, 24119.2920363879 
703, 24227.9139968655 
704, 24435.7959587198 
705, 24679.0423218692 
706, 24891.0336831531 
707, 25014.9109065255 
708, 25118.7840569059 
709, 25212.2500367258 
710, 25292.3692038511 
711, 25370.8331105511 
712, 25426.6371891322 
713, 25446.9314588923 
714, 25415.4764907863 
715, 25277.9704184237 
716, 24925.9858624152 
717, 24311.3001636392 
718, 23470.8747546887 
719, 22771.1542336821 
720, 22514.0742808069 
721, 22814.8021054656 
722, 23443.0273699876 
723, 23881.2101671977 
724, 23947.5052398391 
725, 23733.415830407 
726, 23679.7830346735 
727, 23749.8430517774 
728, 23859.4214557431 
729, 23929.9182941882 
730, 24100.1464857944 
731, 24403.7051570557 
732, 24821.1231903344 
733, 25283.7737003917 
734, 25685.9467632242 
735, 25946.5477571474 
736, 26030.1552926407 
737, 26017.1093379726 
738, 25990.6856133554 
739, 25969.8660168045 
740, 25922.8111162354 
741, 25918.1950916036 
742, 25964.7634745027 
743, 26054.1970954105 
744, 26171.2256684599 
745, 26254.1066042021 
746, 26293.7467348139 
747, 26299.2488606106 
748, 26273.7315803811 
749, 26198.5057251232 
750, 26089.7490799486 
751, 25988.9127115095 
752, 25943.8927853939 
753, 25938.697560661 
754, 25944.3201367542 
755, 25924.6117680873 
756, 25805.8629116755 
757, 25274.2758875244 
758, 23826.0928362086 
759, 20603.551867042 
760, 15854.068704937 
761, 11188.11992327 
762, 8558.3368123923 
763, 8534.95126372714 
764, 9909.98825136203 
765, 12067.0248887019 
766, 14930.6869121721 
767, 18065.7407618513 
768, 20794.7347550694 
769, 22699.9565816653 
770, 23779.1164277615 
771, 24317.6140343069 
772, 24537.0262289507 
773, 24606.6519417576 
774, 24609.0585502256 
775, 24561.886830644 
776, 24494.9572782804 
777, 24429.8679016296 
778, 24340.940586725 
779, 24232.1789858906 
780, 24121.9158922833 
781, 24034.0991161096 
782, 23935.6251758306 
783, 23816.5110787889 
784, 23679.9524284403 
785, 23542.9522569947 
786, 23404.6035850293 
787, 23241.766239715 
788, 23035.0409499798 
789, 22789.5267096128 
790, 22530.5406932268 
791, 22268.5283633768 
792, 22008.8434165242 
793, 21762.9660521246 
794, 21566.7104455796 
795, 21438.0170052399 
796, 21372.2286801124 
797, 21324.200481723 
798, 21242.9735107973 
799, 21102.3184370467 
800, 20909.4658563697 
801, 20692.9886449258 
802, 20492.2936323952 
803, 20325.0218695886 
804, 20157.9624289378 
805, 20018.0410053678 
806, 19891.9518361318 
807, 19749.7229270145 
808, 19558.4793774455 
809, 19321.7018176296 
810, 19056.1239404219 
811, 18774.4062629123 
812, 18427.8872284034 
813, 17973.9274895651 
814, 17409.2283284018 
815, 16776.6845871207 
816, 16191.3205061259 
817, 15736.4660581536 
818, 15463.7223577666 
819, 15387.9991960225 
820, 15379.7008654257 
821, 15336.6023979978 
822, 15216.02648301 
823, 15075.9429451003 
824, 14984.5022079099 
825, 15002.3436853585 
826, 15114.0818996146 
827, 15089.7009162328 
828, 14927.0696447508 
829, 14703.0433044632 
830, 14526.3209737629 
831, 14415.9307570018 
832, 14339.1788635642 
833, 14278.7736720996 
834, 14235.7223604081 
835, 14221.5279335476 
836, 14219.0726873022 
837, 14202.18026164 
838, 14141.6821162634 
839, 14043.8772730231 
840, 13922.9643785805 
841, 13790.7385738396 
842, 13650.7461410907 
843, 13504.2062128024 
844, 13359.6137436678 
845, 13221.8359054933 
846, 13087.0132996969 
847, 12917.1377029558 
848, 12709.8046717609 
849, 12478.8733065297 
850, 12244.1763334119 
851, 11972.0510863039 
852, 11691.6013325126 
853, 11456.8380217854 
854, 11283.2581706761 
855, 11145.7655782693 
856, 11084.0169650484 
857, 11155.582836798 
858, 11274.4633847598 
859, 11309.2937152952 
860, 11234.1450514254 
861, 11118.5625125417 
862, 10978.7283443396 
863, 10796.3769709864 
864, 10574.2837075501 
865, 10344.6366993304 
866, 10127.0063646297 
867, 9942.93497922903 
868, 9823.62917487008 
869, 9809.64219198449 
870, 9840.17243677762 
871, 9837.48557785691 
872, 9764.17011701418 
873, 9658.04852230534 
874, 9542.69898934594 
875, 9425.71925331582 
876, 9308.90407985415 
877, 9194.51679617079 
878, 9084.30788883031 
879, 8976.44557127045 
880, 8867.61826776753 
881, 8753.59270298558 
882, 8642.24811409868 
883, 8536.95103270414 
884, 8437.64312833959 
885, 8340.96946850498 
886, 8234.78700550637 
887, 8120.79072494093 
888, 8006.71145809808 
889, 7897.13219044469 
890, 7789.49376900579 
891, 7667.14026988786 
892, 7510.85988536774 
893, 7320.40273847213 
894, 7099.5698284856 
895, 6854.76732667244 
896, 6595.13232978221 
897, 6331.76192075775 
898, 6084.04139579904 
899, 5879.73911235866 
900, 5743.33494723156 
901, 5665.99668752228 
902, 5633.55411217875 
903, 5624.12119011471 
904, 5612.58219734759 
905, 5582.42383608945 
906, 5523.65858317306 
907, 5424.06511561928 
908, 5278.74162412266 
909, 5123.58934446772 
910, 4993.91733927339 
911, 4900.99663196649 
912, 4834.8581280105 
913, 4780.09544183088 
914, 4728.06237147782 
915, 4676.85853321835 
916, 4630.85666566341 
917, 4601.23302900444 
918, 4579.75144992806 
919, 4559.90950379592 
920, 4538.39506016403 
921, 4515.35671895625 
922, 4480.25871133114 
923, 4423.16242918714 
924, 4337.36248825555 
925, 4224.91726149373 
926, 4088.68003656114 
927, 3924.76536154147 
928, 3726.18151066786 
929, 3494.77497166402 
930, 3233.2453449157 
931, 2956.26869655343 
932, 2687.21368859773 
933, 2448.9770787748 
934, 2260.07651864685 
935, 2132.71264910165 
936, 2069.38479438505 
937, 2056.13662302385 
938, 2074.47471426059 
939, 2103.74593768409 
940, 2127.98371662539 
941, 2150.1089448757 
942, 2158.92839308481 
943, 2142.83452492858 
944, 2098.17168983176 
945, 2041.92033743603 
946, 1995.71230280018 
947, 1967.73518971481 
948, 1956.56264584183 
949, 1955.29795415242 
950, 1953.98547511693 
951, 1950.41537621416 
952, 1945.0347662048 
953, 1936.56367903412 
954, 1928.06379693364 
955, 1919.11683984456 
956, 1911.77178503968 
957, 1914.08901096491 
958, 1914.33498553318 
959, 1914.17437972953 
960, 1917.17349563006 
961, 1924.29753140325 
962, 1931.30051003136 
963, 1942.19531560061 
964, 1956.35608376078 
965, 1966.67912928141 
966, 1975.53128768817 
967, 1980.54165298843 
968, 1980.47004031504 
969, 1975.72397325983 
970, 1966.45559507562 
971, 1953.418957659 
972, 1933.70617945257 
973, 1903.88826591633 
974, 1868.88891335937 
975, 1834.07115549366 
976, 1801.15930269126 
977, 1770.56120212625 
978, 1745.51246319901 
979, 1726.65818456712 
980, 1711.67472153358 
981, 1697.21893123208 
982, 1680.72203559365 
983, 1665.33659721978 
984, 1648.50749190086 
985, 1628.23001799125 
986, 1605.78521828227 
987, 1580.75020584389 
988, 1554.52828321776 
989, 1527.98956018447 
990, 1500.89863083679 
991, 1472.19826010614 
992, 1442.5291623723 
993, 1413.58679299324 
994, 1386.54948392865 
995, 1357.87891772097 
996, 1329.36795324252 
997, 1299.69032818077 
998, 1267.72904764728 
999, 1237.37191165484 
1000, 1207.91309430078 
1001, 7688.21681239302 
1002, 7688.31464565332 
1003, 7687.66229017826 
1004, 7691.5267636687 
1005, 7698.22749809079 
1006, 7714.88968682626 
1007, 7742.45862414375 
1008, 7777.06499339608 
1009, 7817.19633554787 
1010, 7869.71894020248 
1011, 7915.79662533385 
1012, 7963.68474603593 
1013, 8015.51028091105 
1014, 8060.66270080158 
1015, 8098.87163514312 
1016, 8144.10110775587 
1017, 8189.03676724721 
1018, 8231.27496562694 
1019, 8285.3763448613 
1020, 8342.18314435803 
1021, 8394.94420889486 
1022, 8447.95722489638 
1023, 8503.3644435499 
1024, 8556.23760300775 
1025, 8607.04214768022 
1026, 8662.17403455115 
1027, 8719.79654611958 
1028, 8772.52776120746 
1029, 8819.56057723559 
1030, 8864.61230258788 
1031, 8904.50291633541 
1032, 8942.46581160337 
1033, 8984.02931810232 
1034, 9018.62664079692 
1035, 9049.65972706497 
1036, 9075.76088813626 
1037, 9105.31980845445 
1038, 9129.67837342731 
1039, 9150.90427664071 
1040, 9174.85168031687 
1041, 9191.14146006673 
1042, 9201.98227157475 
1043, 9213.63272081569 
1044, 9223.31110201702 
1045, 9231.57111448229 
1046, 9242.54687075298 
1047, 9255.01215017681 
1048, 9269.9038926129 
1049, 9280.83991162507 
1050, 9290.93606309862 
1051, 9301.53879965988 
1052, 9315.31592002338 
1053, 9334.10776260952 
1054, 9347.94914098797 
1055, 9365.477010956 
1056, 9379.14182636351 
1057, 9391.97198104414 
1058, 9421.39157778551 
1059, 9455.73166826474 
1060, 9493.78591422871 
1061, 9537.10171426756 
1062, 9587.39247679523 
1063, 9642.98357278354 
1064, 9703.06489654263 
1065, 9766.38952273233 
1066, 9833.00431763566 
1067, 9910.00916432629 
1068, 9995.64713841761 
1069, 10096.7091596519 
1070, 10212.7158946734 
1071, 10328.974209732 
1072, 10444.6004341254 
1073, 10563.0369516892 
1074, 10689.9499450033 
1075, 10805.203307703 
1076, 10919.8793431668 
1077, 11029.3912550663 
1078, 11123.1275880377 
1079, 11205.5069349063 
1080, 11273.6428334945 
1081, 11334.6213232977 
1082, 11396.1356329841 
1083, 11456.2225474912 
1084, 11518.22867427 
1085, 11581.0924768054 
1086, 11634.3273505453 
1087, 11684.6401792274 
1088, 11721.931374531 
1089, 11755.4147526702 
1090, 11770.9750205959 
1091, 11771.8732446493 
1092, 11764.8319662195 
1093, 11742.1035228523 
1094, 11713.9497455171 
1095, 11688.5300251228 
1096, 11658.9519711512 
1097, 11627.0461514148 
1098, 11591.8473088346 
1099, 11553.4905520248 
1100, 11506.8142301494 
1101, 11465.6575512018 
1102, 11430.396611945 
1103, 11383.0658183887 
1104, 11341.3634435233 
1105, 11279.8082112961 
1106, 11204.6463228587 
1107, 11101.6835480745 
1108, 10950.4781645275 
1109, 10762.4692206151 
1110, 10503.6505408889 
1111, 10182.53285369 
1112, 9810.88163348113 
1113, 9359.42414609833 
1114, 8910.13123382432 
1115, 8385.15195743479 
1116, 7913.24563263809 
1117, 7404.60807639213 
1118, 6973.86378582269 
1119, 6575.57181967319 
1120, 6216.04744378237 
1121, 5923.23366327875 
1122, 5681.49344925471 
1123, 5506.98050056139 
1124, 5395.04339467853 
1125, 5342.13768178798 
1126, 5378.24340214064 
1127, 5412.19453628332 
1128, 5501.15935083881 
1129, 5590.11686230544 
1130, 5707.14564838501 
1131, 5822.89916867928 
1132, 5942.3369417563 
1133, 6090.34130932456 
1134, 6249.0137256561 
1135, 6420.21580457282 
1136, 6662.13245053927 
1137, 6908.70435101889 
1138, 7152.52810779059 
1139, 7383.45135889454 
1140, 7527.88763648016 
1141, 7624.7460562883 
1142, 7669.24545428287 
1143, 7615.18214374919 
1144, 7596.44378948103 
1145, 7486.25654108198 
1146, 7492.75763683246 
1147, 7509.81802747021 
1148, 7614.54911803631 
1149, 7806.85132633125 
1150, 8039.43919680199 
1151, 8341.05171091807 
1152, 8675.23472945535 
1153, 9027.53879521184 
1154, 9434.97670678289 
1155, 9824.51894154293 
1156, 10235.9655970496 
1157, 10630.6792172919 
1158, 11039.5653785682 
1159, 11416.5724558452 
1160, 11790.4598669693 
1161, 12130.4189341009 
1162, 12450.0907904269 
1163, 12741.7910622696 
1164, 13004.8103542731 
1165, 13245.8154997095 
1166, 13464.7935092303 
1167, 13648.7438281139 
1168, 13809.1945684994 
1169, 13943.3582216614 
1170, 14052.0144042217 
1171, 14129.6746761302 
1172, 14192.5230258925 
1173, 14225.4871618876 
1174, 14252.894901117 
1175, 14260.4083168533 
1176, 14260.8091851019 
