Wavelength,0212202100062.asd
350, 3899.61211905968 
351, 4106.56419882864 
352, 4298.36692362332 
353, 4461.40719763256 
354, 4617.96745555764 
355, 4783.08515634433 
356, 4961.77071676254 
357, 5136.61904580272 
358, 5317.07989917403 
359, 5509.47435701644 
360, 5722.19996061157 
361, 5980.69409642858 
362, 6279.61544288144 
363, 6604.03824485171 
364, 6933.29946779061 
365, 7268.05647020645 
366, 7587.89930688281 
367, 7868.48976187952 
368, 8086.54677839199 
369, 8216.90748703464 
370, 8265.84801635892 
371, 8258.33944641017 
372, 8228.20925419695 
373, 8220.53367436898 
374, 8241.10919918601 
375, 8267.37504149865 
376, 8292.79382436071 
377, 8311.59329754531 
378, 8304.31003087831 
379, 8234.01979281799 
380, 8140.66399292903 
381, 8035.37147169968 
382, 7916.91988787484 
383, 7767.33294254367 
384, 7614.12397044203 
385, 7508.93099146558 
386, 7512.42207934261 
387, 7668.1861005009 
388, 7896.26794625972 
389, 8099.96104022496 
390, 8188.78131236603 
391, 8283.96737279009 
392, 8380.66256149443 
393, 8461.22311060107 
394, 8521.13815998962 
395, 8697.83106336738 
396, 9049.75651805526 
397, 9596.44757167634 
398, 10362.1519341667 
399, 11234.0273899958 
400, 12129.393123551 
401, 13001.6623328929 
402, 13832.7372799187 
403, 14517.5330445516 
404, 15011.4588459313 
405, 15397.9948297758 
406, 15705.7566469844 
407, 15979.6134851652 
408, 16276.3858596034 
409, 16685.2844603232 
410, 17175.291709844 
411, 17715.814867948 
412, 18278.9348216021 
413, 18836.0451789729 
414, 19389.035329849 
415, 19925.1781583595 
416, 20396.2436077424 
417, 20839.9653189192 
418, 21294.1806804763 
419, 21772.1677380141 
420, 22190.1102422829 
421, 22609.8204214753 
422, 23066.1870357927 
423, 23560.8579794762 
424, 24017.1232356627 
425, 24379.98255741 
426, 24599.6889065324 
427, 24622.8584222475 
428, 24535.9326740776 
429, 24558.7945302824 
430, 24868.8925797658 
431, 25321.5502394681 
432, 25915.4271251636 
433, 26785.8282886746 
434, 28109.1952585386 
435, 29517.1891961583 
436, 30596.7430564638 
437, 31261.9271343532 
438, 31965.0037666594 
439, 32689.7026737305 
440, 33374.9304681722 
441, 33995.3062710543 
442, 34795.6877514526 
443, 35641.9722033693 
444, 36422.2734502122 
445, 37060.3815680021 
446, 37571.6298159732 
447, 38031.5952658854 
448, 38521.214909143 
449, 39125.7629239008 
450, 39640.2121950351 
451, 39921.7327865341 
452, 39915.2744649724 
453, 39822.1482005456 
454, 39607.6903822602 
455, 39332.0030389914 
456, 39141.4625970099 
457, 39103.7119672171 
458, 39125.7371128953 
459, 39109.4952308209 
460, 39015.3786205902 
461, 38871.8242768852 
462, 38713.8670943364 
463, 38557.6230667895 
464, 38311.2601500048 
465, 37925.9811972203 
466, 37446.3050598861 
467, 37006.0272888387 
468, 36637.8346962362 
469, 36364.7649866609 
470, 36197.6027272227 
471, 36147.0230870213 
472, 36118.3974073225 
473, 36119.4386593765 
474, 36186.3146466445 
475, 36189.4051310317 
476, 36165.27991292 
477, 36154.653866595 
478, 36183.1130570362 
479, 36307.7415845751 
480, 36475.7267371989 
481, 36593.4295458059 
482, 36563.8394297723 
483, 36294.6096940235 
484, 35727.5382183349 
485, 34876.8779015816 
486, 34053.2192872933 
487, 33469.7229238869 
488, 33299.3028707716 
489, 33695.9142546755 
490, 34326.6056908457 
491, 34848.9141723042 
492, 35040.4148010784 
493, 35117.3503129015 
494, 35223.2267849943 
495, 35426.7926548493 
496, 35709.6149769004 
497, 35807.2407477975 
498, 35717.9746008929 
499, 35499.891441869 
500, 35209.066616492 
501, 34989.2640115246 
502, 34906.523121273 
503, 34993.8045442851 
504, 35332.3662717 
505, 35798.9552656488 
506, 36270.0957339706 
507, 36643.3293514103 
508, 36927.3657132828 
509, 37149.3455250763 
510, 37355.3807994952 
511, 37636.0035254986 
512, 37833.3306914231 
513, 37874.3489474531 
514, 37740.9788992333 
515, 37433.8205308518 
516, 37019.8375374963 
517, 36615.3887893083 
518, 36381.5107518984 
519, 36695.3800215597 
520, 37589.0955184065 
521, 38847.7239952643 
522, 39899.7369735418 
523, 40685.5120587392 
524, 41239.2892266468 
525, 41657.5683677007 
526, 41845.0623172987 
527, 41926.3020484735 
528, 42154.3229816787 
529, 43003.795360097 
530, 44114.6981646806 
531, 45056.3063757121 
532, 45471.7082336686 
533, 45612.5361104923 
534, 45822.0924699984 
535, 46284.3585133243 
536, 46984.1269912236 
537, 47490.5512798232 
538, 47727.6108397707 
539, 47761.7486008824 
540, 47754.4988242209 
541, 47803.7463978769 
542, 48054.4041142016 
543, 48623.1496055732 
544, 49272.7375484829 
545, 49840.573243099 
546, 50238.6125219182 
547, 50470.8452315135 
548, 50624.7238375209 
549, 50801.0278938774 
550, 51064.2112670329 
551, 51339.4810280371 
552, 51554.7545938164 
553, 51713.6273927136 
554, 51878.3961893839 
555, 52006.2113184392 
556, 51968.7953562777 
557, 51693.7968608956 
558, 51226.6063398611 
559, 50829.5675438681 
560, 50655.8687456964 
561, 50758.6500745523 
562, 50999.3142220278 
563, 51146.7436582756 
564, 51085.7033648395 
565, 50848.674372106 
566, 50509.3345479337 
567, 50165.6574330233 
568, 49877.4569054433 
569, 49589.5541090551 
570, 49210.0734092879 
571, 48848.3575224413 
572, 48722.2849729229 
573, 48784.5374883447 
574, 48791.4881055204 
575, 48586.990628551 
576, 48193.0732625867 
577, 47826.0616269239 
578, 47630.3990652002 
579, 47685.4407715455 
580, 47933.0296578807 
581, 48361.9285056588 
582, 48880.2933691944 
583, 49322.8696799989 
584, 49601.4827400221 
585, 49596.1000622144 
586, 49294.6633421341 
587, 48925.9931545962 
588, 48472.5867911477 
589, 47858.7259169056 
590, 47084.9606699213 
591, 46818.6255826688 
592, 47049.917426844 
593, 47461.0004607664 
594, 47443.5749848993 
595, 47204.9745926544 
596, 46860.9574002536 
597, 46492.3916083168 
598, 46092.5659308902 
599, 45607.1811953953 
600, 45078.6828634631 
601, 44616.4749881325 
602, 44261.0134206454 
603, 44070.7238046343 
604, 44042.2076462594 
605, 44083.0696695993 
606, 43988.8523560971 
607, 43746.9584145679 
608, 43433.4658136444 
609, 43127.548619437 
610, 42837.6986966642 
611, 42575.4309060642 
612, 42354.590154725 
613, 42122.5589665675 
614, 41851.9349944628 
615, 41556.585762543 
616, 41324.7103602162 
617, 41185.5798423667 
618, 41193.6413418912 
619, 41374.7573638832 
620, 41569.3245896869 
621, 41600.2217867349 
622, 41407.0557323117 
623, 41074.1530225484 
624, 40692.5885377512 
625, 40333.2602256571 
626, 40034.6501928915 
627, 39774.4644191216 
628, 39521.6842318665 
629, 39278.5183171466 
630, 39084.4897623729 
631, 39092.5399395774 
632, 39217.7659933186 
633, 39379.2347621203 
634, 39562.0419318419 
635, 39701.082127433 
636, 39795.6836232268 
637, 39861.2874905334 
638, 39879.783360962 
639, 39819.5768870266 
640, 39650.718752237 
641, 39361.5727614295 
642, 39134.5863119327 
643, 39001.3864587848 
644, 38921.7018534443 
645, 38776.1746474288 
646, 38550.259219637 
647, 38266.0817963465 
648, 37973.360484905 
649, 37733.3145774402 
650, 37539.5235673313 
651, 37427.9447369432 
652, 37466.8338766073 
653, 37379.5255126245 
654, 36966.5275220783 
655, 36189.7729955722 
656, 35281.4776158059 
657, 34624.8942149659 
658, 34625.8802611454 
659, 35491.8847970129 
660, 36390.7727611527 
661, 36909.8640235071 
662, 37015.0246667177 
663, 37069.2547121005 
664, 37035.9555170171 
665, 36980.2909690612 
666, 36959.5983987957 
667, 36974.9294102901 
668, 36965.3852347844 
669, 36930.8786584199 
670, 36899.9780671677 
671, 36830.8877482401 
672, 36745.4686551843 
673, 36687.0491069308 
674, 36717.3198883741 
675, 36769.5133879193 
676, 36808.0411737755 
677, 36821.3709541396 
678, 36847.6648334623 
679, 36860.6884801433 
680, 36857.068054401 
681, 36845.6276068599 
682, 36824.3625430425 
683, 36742.4182161774 
684, 36442.1790980638 
685, 35630.7127891272 
686, 34202.4870803604 
687, 32290.6429027953 
688, 30362.0396857865 
689, 29559.3146181692 
690, 30160.9025667871 
691, 31636.8226811452 
692, 32977.0274454841 
693, 34159.8114143711 
694, 35030.4157862301 
695, 35562.3277149681 
696, 35901.2825489473 
697, 36170.8294833701 
698, 36345.8580984143 
699, 36376.8859348071 
700, 36298.2033392728 
701, 36217.4444856705 
702, 36213.1949470725 
703, 36335.1572157448 
704, 36602.9573624887 
705, 36921.9470627524 
706, 37195.3347607503 
707, 37346.7788114898 
708, 37464.2724565251 
709, 37567.9453869114 
710, 37659.678001135 
711, 37746.3315594463 
712, 37804.8004308252 
713, 37818.6846867665 
714, 37767.0445507225 
715, 37594.7880376109 
716, 37157.7863634226 
717, 36388.52790673 
718, 35330.9778296828 
719, 34425.6394089611 
720, 34068.9738732682 
721, 34427.7898062143 
722, 35221.2577913634 
723, 35785.186435527 
724, 35888.0198030091 
725, 35643.7372968983 
726, 35584.8255870686 
727, 35667.3034767934 
728, 35788.4906881422 
729, 35851.8406620367 
730, 36047.8382725822 
731, 36422.5399404378 
732, 36943.9054147882 
733, 37498.3065682757 
734, 37973.3575720723 
735, 38272.024299961 
736, 38348.2435242368 
737, 38300.7258418032 
738, 38227.0258156535 
739, 38150.2577443675 
740, 38036.8194034855 
741, 37991.0864857069 
742, 38029.2429941568 
743, 38137.6463147246 
744, 38284.943807943 
745, 38387.7440339708 
746, 38434.7993006175 
747, 38438.0054489897 
748, 38394.04200261 
749, 38278.1725350878 
750, 38116.2883701182 
751, 37969.5988199092 
752, 37898.7548449241 
753, 37886.789906794 
754, 37894.4410427112 
755, 37865.8817176486 
756, 37689.8722282729 
757, 36919.5765184708 
758, 34837.366435523 
759, 30214.9298297996 
760, 23417.1587832186 
761, 16763.0843970683 
762, 13057.6889859152 
763, 13111.0189295863 
764, 15158.2299283435 
765, 18289.5998123036 
766, 22381.8378119622 
767, 26819.4105194924 
768, 30659.8843383948 
769, 33325.8557728138 
770, 34819.334615304 
771, 35557.801690633 
772, 35849.3760042374 
773, 35928.8390691503 
774, 35927.2087437433 
775, 35855.1792273441 
776, 35754.8436888611 
777, 35661.2942582001 
778, 35530.6892149973 
779, 35369.9967753235 
780, 35208.16938814 
781, 35082.4447107351 
782, 34941.8837502278 
783, 34771.6788633743 
784, 34576.7769836613 
785, 34382.4130961934 
786, 34194.1932055881 
787, 33975.5672490412 
788, 33695.2566510833 
789, 33366.4299644782 
790, 33012.9584461341 
791, 32641.5322196174 
792, 32256.6911820529 
793, 31883.0697485755 
794, 31582.0719893921 
795, 31388.732474904 
796, 31301.836946722 
797, 31240.5057469608 
798, 31123.2572209577 
799, 30913.210125234 
800, 30631.4731201329 
801, 30323.7560019856 
802, 30035.3334862609 
803, 29784.5147029015 
804, 29535.3816869759 
805, 29313.3511683094 
806, 29106.524638817 
807, 28884.7880635594 
808, 28605.892699263 
809, 28274.1197437168 
810, 27911.2666455408 
811, 27535.4797104486 
812, 27095.1661915264 
813, 26517.4924988585 
814, 25787.3251947257 
815, 24958.2365822526 
816, 24174.9082358583 
817, 23540.196536399 
818, 23123.5991447563 
819, 22957.5241183632 
820, 22889.6071872468 
821, 22791.1232453147 
822, 22605.4491530543 
823, 22405.1297636463 
824, 22266.8343075385 
825, 22263.3016195405 
826, 22374.4284562205 
827, 22311.6357439137 
828, 22069.792254174 
829, 21747.6198213739 
830, 21484.6038975185 
831, 21297.0703380752 
832, 21150.393587906 
833, 21027.110854085 
834, 20929.8297206525 
835, 20872.089759416 
836, 20837.348902357 
837, 20788.7065828911 
838, 20675.7359932417 
839, 20515.9041502013 
840, 20326.9195633453 
841, 20122.8007997207 
842, 19908.84882757 
843, 19688.4843947584 
844, 19471.2663223389 
845, 19262.3950607316 
846, 19059.107091699 
847, 18808.5156761666 
848, 18504.9067904148 
849, 18166.3268471662 
850, 17826.2165037732 
851, 17431.5270187167 
852, 17023.8230367903 
853, 16681.8901900932 
854, 16424.6136906225 
855, 16220.6407511703 
856, 16131.3508345753 
857, 16240.6868136762 
858, 16411.682583576 
859, 16459.1740973518 
860, 16348.6966684279 
861, 16180.9061701313 
862, 15980.3490011919 
863, 15717.6897174124 
864, 15394.1510876688 
865, 15055.143527054 
866, 14738.6322510513 
867, 14473.4684293142 
868, 14302.4112444724 
869, 14284.8021787242 
870, 14331.5140175808 
871, 14328.7065719271 
872, 14222.0052489373 
873, 14067.8033866176 
874, 13900.3685789165 
875, 13732.3275925623 
876, 13566.124196289 
877, 13400.2209506974 
878, 13242.7552479066 
879, 13088.1880892385 
880, 12929.3181510795 
881, 12766.245936346 
882, 12606.5107122421 
883, 12456.6127475287 
884, 12317.4027801005 
885, 12176.3365040221 
886, 12022.5824925372 
887, 11860.1014073497 
888, 11698.5998995381 
889, 11541.2471922959 
890, 11387.622619371 
891, 11218.6668610656 
892, 11010.0796699312 
893, 10755.9091630115 
894, 10463.5501726512 
895, 10139.3252595569 
896, 9791.68643302879 
897, 9437.32917123172 
898, 9103.4487422865 
899, 8822.11419539539 
900, 8620.87702560509 
901, 8501.4722048953 
902, 8442.15629077706 
903, 8413.12243360773 
904, 8383.02929498405 
905, 8335.81764731121 
906, 8249.5150141564 
907, 8107.14154201899 
908, 7907.06611032927 
909, 7695.63039374698 
910, 7516.2177828974 
911, 7384.43923373495 
912, 7290.31426873295 
913, 7212.88129071934 
914, 7134.1228194468 
915, 7052.42237676143 
916, 6978.9105015082 
917, 6922.81872444378 
918, 6875.50780101598 
919, 6830.15945809117 
920, 6783.31459230558 
921, 6736.29895259656 
922, 6672.92173808992 
923, 6582.30265533102 
924, 6460.1612209368 
925, 6307.10714104389 
926, 6125.52834277318 
927, 5906.3882071904 
928, 5636.51748125864 
929, 5322.83423499968 
930, 4967.25314140454 
931, 4587.60835555968 
932, 4214.32146372867 
933, 3880.11682561056 
934, 3612.24307969025 
935, 3429.48648517954 
936, 3336.20820823298 
937, 3309.40170121522 
938, 3326.9702508352 
939, 3363.10246376575 
940, 3395.45617949386 
941, 3419.18485820196 
942, 3424.07216714331 
943, 3394.5903583444 
944, 3324.48474929638 
945, 3238.31394996443 
946, 3169.26020646113 
947, 3128.03016049517 
948, 3110.03545323518 
949, 3102.73318410103 
950, 3093.52723832829 
951, 3081.00682774709 
952, 3067.10211810531 
953, 3050.05363740204 
954, 3031.59359065746 
955, 3015.07368219182 
956, 3002.36912436598 
957, 2991.69610530257 
958, 2987.0901630225 
959, 2984.24834108878 
960, 2981.37353620023 
961, 2983.10876930368 
962, 2984.87011015343 
963, 2990.61264288763 
964, 2999.88979967233 
965, 3005.85658114503 
966, 3009.49519116105 
967, 3006.10326925622 
968, 2995.1186843158 
969, 2980.16309844904 
970, 2962.19142363201 
971, 2939.20689934103 
972, 2905.90484003873 
973, 2858.52814786262 
974, 2807.86518813427 
975, 2755.33053328626 
976, 2703.73944838001 
977, 2657.14902533486 
978, 2621.4467310451 
979, 2590.83644484206 
980, 2564.16615265783 
981, 2540.27503594139 
982, 2514.25617206932 
983, 2485.68809942961 
984, 2454.77193878031 
985, 2422.58387447762 
986, 2390.53585518195 
987, 2352.29855795921 
988, 2311.81694550759 
989, 2270.60336111539 
990, 2226.35702312481 
991, 2185.02410381163 
992, 2144.60764971919 
993, 2102.74807237069 
994, 2058.52341389818 
995, 2014.75532687249 
996, 1973.74763975386 
997, 1932.18878098165 
998, 1886.6608756567 
999, 1841.20441313066 
1000, 1796.66653098224 
1001, 11478.1478532401 
1002, 11477.3392074985 
1003, 11478.7744321588 
1004, 11486.9756771458 
1005, 11506.5439170662 
1006, 11537.5342798796 
1007, 11587.6073335108 
1008, 11650.3361688814 
1009, 11713.0184431682 
1010, 11787.769133082 
1011, 11858.5264230293 
1012, 11931.4960026185 
1013, 12000.1004127313 
1014, 12069.1742962585 
1015, 12139.2397405646 
1016, 12215.212526127 
1017, 12293.6659916614 
1018, 12366.6677995236 
1019, 12444.5708641996 
1020, 12525.9700676537 
1021, 12599.3725839824 
1022, 12680.3769113761 
1023, 12769.2886519546 
1024, 12860.0842196251 
1025, 12942.6670045376 
1026, 13034.5023817238 
1027, 13121.9262109101 
1028, 13199.1528768758 
1029, 13275.7326797526 
1030, 13348.3733033836 
1031, 13415.2029803079 
1032, 13480.543281091 
1033, 13541.764477104 
1034, 13588.4603603055 
1035, 13633.2815952817 
1036, 13672.2243141833 
1037, 13709.1492866808 
1038, 13743.2473362744 
1039, 13776.3304352636 
1040, 13804.3365967343 
1041, 13831.5071358874 
1042, 13851.4734173489 
1043, 13864.5067679413 
1044, 13879.8183182417 
1045, 13885.4962529258 
1046, 13885.8651330922 
1047, 13893.1939078663 
1048, 13904.0716853391 
1049, 13911.8270484496 
1050, 13924.9514327061 
1051, 13941.6458187768 
1052, 13952.8945525745 
1053, 13976.5682890846 
1054, 14000.4815412825 
1055, 14020.4173889091 
1056, 14045.5424489779 
1057, 14065.1681530172 
1058, 14093.7026478813 
1059, 14136.3911426709 
1060, 14185.1748935843 
1061, 14245.4274953941 
1062, 14314.1486507781 
1063, 14391.5965649479 
1064, 14468.6241842806 
1065, 14560.3797996469 
1066, 14660.3207173513 
1067, 14763.7978047641 
1068, 14884.7262849083 
1069, 15025.7245610092 
1070, 15179.005240025 
1071, 15344.4227533508 
1072, 15515.8945179126 
1073, 15688.4647654072 
1074, 15875.7842183395 
1075, 16040.4769544327 
1076, 16202.4736294571 
1077, 16353.9085443022 
1078, 16482.3319868159 
1079, 16600.7386034918 
1080, 16705.8050576498 
1081, 16807.5967076154 
1082, 16903.9863264885 
1083, 16990.375285597 
1084, 17078.6060648898 
1085, 17163.7270946264 
1086, 17241.4137200475 
1087, 17318.115776678 
1088, 17379.3896348016 
1089, 17440.7916984212 
1090, 17476.3645433816 
1091, 17494.5907665806 
1092, 17495.7902328334 
1093, 17476.7389446046 
1094, 17449.7251175922 
1095, 17425.1702791875 
1096, 17401.8361857572 
1097, 17380.1966170325 
1098, 17354.3572824692 
1099, 17328.1072993213 
1100, 17298.2706519956 
1101, 17266.3054884502 
1102, 17240.4775192101 
1103, 17199.4251848669 
1104, 17159.2902488276 
1105, 17100.4791312244 
1106, 17024.7517339014 
1107, 16901.2521567775 
1108, 16708.8861197817 
1109, 16460.629341564 
1110, 16115.0205642791 
1111, 15692.4867382995 
1112, 15194.6616058966 
1113, 14589.9060113943 
1114, 13977.546756853 
1115, 13254.8049470387 
1116, 12604.5870317756 
1117, 11895.3306405863 
1118, 11295.2116814478 
1119, 10739.8950781977 
1120, 10236.1550329796 
1121, 9822.47989201788 
1122, 9492.33892937236 
1123, 9260.58130983404 
1124, 9110.60254574219 
1125, 9045.18335108726 
1126, 9104.45805770947 
1127, 9159.78084995439 
1128, 9292.36229663848 
1129, 9426.34630023895 
1130, 9601.43539764834 
1131, 9773.51039280195 
1132, 9950.62910414735 
1133, 10165.0196154763 
1134, 10387.3497379131 
1135, 10635.2728126811 
1136, 10990.0336672671 
1137, 11354.5067912136 
1138, 11715.3359605887 
1139, 12053.4574185191 
1140, 12282.5997697117 
1141, 12448.3562642305 
1142, 12537.1502389968 
1143, 12507.2613770148 
1144, 12504.784933889 
1145, 12354.2105710102 
1146, 12374.8327220395 
1147, 12403.1008946885 
1148, 12557.4352986793 
1149, 12834.2595312053 
1150, 13170.5758124995 
1151, 13608.9263036715 
1152, 14102.727585832 
1153, 14614.8930249629 
1154, 15209.3248705226 
1155, 15772.3428738168 
1156, 16364.4777126832 
1157, 16922.8072394329 
1158, 17492.0603774014 
1159, 18022.5742302957 
1160, 18535.2535075001 
1161, 19016.6277569828 
1162, 19484.0161389092 
1163, 19908.3174542598 
1164, 20298.782051286 
1165, 20653.0778812387 
1166, 20974.065462318 
1167, 21257.7455795451 
1168, 21508.9592638051 
1169, 21730.9138211366 
1170, 21908.3526362618 
1171, 22041.1399457315 
1172, 22153.1533411256 
1173, 22219.2552904156 
1174, 22278.7586055483 
1175, 22310.3716325368 
1176, 22336.1768152909 
1177, 22335.5796508694 
