Wavelength,0212202100024.asd
350, 3749.55271993676 
351, 3937.93512370092 
352, 4111.63529648072 
353, 4260.76676075432 
354, 4408.81047971861 
355, 4564.45109200661 
356, 4728.1484862218 
357, 4889.35624034254 
358, 5057.6159166437 
359, 5238.85162360608 
360, 5440.38012564569 
361, 5686.50230628068 
362, 5964.85724351317 
363, 6261.72629622874 
364, 6565.46532404906 
365, 6873.00579803934 
366, 7164.65606097692 
367, 7417.03544252862 
368, 7606.62611549844 
369, 7713.42626507903 
370, 7748.85485564455 
371, 7739.90914708165 
372, 7713.49663956146 
373, 7705.06095796263 
374, 7718.67284463877 
375, 7736.33577331704 
376, 7758.76489591588 
377, 7768.55821505967 
378, 7745.25786793978 
379, 7667.93607436093 
380, 7573.54887973336 
381, 7470.04328427986 
382, 7354.91505765821 
383, 7215.54683018723 
384, 7076.81392093407 
385, 6986.48721659512 
386, 6999.31046569772 
387, 7148.17342602699 
388, 7344.05941561545 
389, 7506.85802414289 
390, 7586.00714498372 
391, 7679.93985561548 
392, 7764.22978758073 
393, 7821.18969515231 
394, 7890.70221977489 
395, 8074.43035875701 
396, 8418.17640464887 
397, 8936.30019661087 
398, 9641.66047282579 
399, 10438.488927042 
400, 11255.7644045517 
401, 12051.1037437652 
402, 12793.5337818789 
403, 13404.6373525099 
404, 13854.0662540317 
405, 14205.0926328361 
406, 14484.4368820421 
407, 14736.4103773599 
408, 15014.8667576986 
409, 15392.5190220665 
410, 15841.3894626331 
411, 16334.0003214265 
412, 16845.4854451862 
413, 17352.9532166633 
414, 17853.427641515 
415, 18334.044845187 
416, 18756.9921906895 
417, 19163.6054605942 
418, 19578.2048173601 
419, 20003.6408221469 
420, 20380.6321998472 
421, 20763.3672511521 
422, 21178.2955785598 
423, 21620.3054151147 
424, 22022.9309290139 
425, 22337.9205034701 
426, 22518.180793064 
427, 22505.8734922375 
428, 22423.8472582163 
429, 22464.1875233553 
430, 22763.6955524158 
431, 23171.5404697424 
432, 23724.8491893986 
433, 24543.2643669775 
434, 25751.2358731319 
435, 26983.6984499422 
436, 27921.85961101 
437, 28519.3298289362 
438, 29155.3771793546 
439, 29802.360701073 
440, 30416.2950399813 
441, 30985.1853742586 
442, 31703.575712941 
443, 32449.4430532241 
444, 33130.2489680801 
445, 33691.5478539809 
446, 34143.7149497954 
447, 34555.3458962427 
448, 34995.8393417773 
449, 35531.5765035595 
450, 35965.3801565513 
451, 36185.4370873022 
452, 36162.0358315565 
453, 36055.7025639375 
454, 35849.2824052032 
455, 35598.290005575 
456, 35423.5098285463 
457, 35377.7600912351 
458, 35383.02591433 
459, 35356.0081037193 
460, 35258.5694061127 
461, 35113.9340956259 
462, 34956.5622641641 
463, 34803.6579939783 
464, 34560.8526194782 
465, 34195.7812294614 
466, 33755.1857453661 
467, 33358.8784452577 
468, 33018.8314165949 
469, 32766.2111980545 
470, 32617.6406624273 
471, 32564.886659297 
472, 32531.506446472 
473, 32524.200692702 
474, 32571.8822386717 
475, 32558.6045972644 
476, 32525.2094080747 
477, 32509.9436859363 
478, 32528.9459344675 
479, 32636.1592315527 
480, 32778.5393691235 
481, 32867.8158815193 
482, 32823.9222556447 
483, 32553.3498959467 
484, 32010.2114475485 
485, 31225.1144513384 
486, 30494.3298583058 
487, 29993.6050327614 
488, 29864.1007224065 
489, 30241.0894660481 
490, 30793.4972164476 
491, 31232.2135537254 
492, 31385.6661090203 
493, 31441.4434657451 
494, 31532.435221457 
495, 31713.8225020517 
496, 31954.7269551823 
497, 32018.7092447845 
498, 31916.6577465368 
499, 31707.7864771788 
500, 31433.0987015117 
501, 31236.3814678972 
502, 31168.4472346383 
503, 31245.2924923577 
504, 31555.2177004437 
505, 31968.1962859217 
506, 32371.2688711145 
507, 32690.7092518119 
508, 32930.507933063 
509, 33119.2045139503 
510, 33299.3149713557 
511, 33542.1180016455 
512, 33702.962324036 
513, 33721.4736259697 
514, 33589.4143037377 
515, 33296.187311822 
516, 32909.4446808583 
517, 32542.3503495045 
518, 32346.955879137 
519, 32658.560234963 
520, 33481.5415464742 
521, 34601.0674015214 
522, 35514.3686629015 
523, 36189.3404652223 
524, 36661.9475771944 
525, 37010.8768357522 
526, 37149.1922649571 
527, 37205.8538076014 
528, 37417.3488627811 
529, 38201.8338664384 
530, 39193.372833734 
531, 39999.2150341553 
532, 40317.2053091948 
533, 40422.1741336645 
534, 40611.1182296222 
535, 41032.5911771125 
536, 41655.7448019224 
537, 42084.9128854934 
538, 42267.6588580651 
539, 42279.3204548133 
540, 42261.3838119817 
541, 42301.1203974023 
542, 42529.8422174227 
543, 43050.7674430723 
544, 43619.8713865485 
545, 44105.7851621268 
546, 44440.8169311454 
547, 44625.6526793223 
548, 44748.0727683519 
549, 44899.4258112112 
550, 45132.9172211312 
551, 45367.9291192619 
552, 45544.9840143555 
553, 45674.0888512199 
554, 45817.5230111625 
555, 45925.9465803426 
556, 45875.9182545731 
557, 45603.6579274852 
558, 45169.534662323 
559, 44810.2310248299 
560, 44662.5391784428 
561, 44768.505685621 
562, 44984.2430947197 
563, 45098.6093668342 
564, 45017.9000416916 
565, 44794.4060819784 
566, 44479.4032780624 
567, 44168.0167481648 
568, 43917.3223410593 
569, 43654.094288638 
570, 43301.3276150942 
571, 42967.5855720886 
572, 42860.379507518 
573, 42932.6762513559 
574, 42939.3426783535 
575, 42731.8505456682 
576, 42355.2367628772 
577, 42020.4114700097 
578, 41849.5329253735 
579, 41899.4433290516 
580, 42119.3944001316 
581, 42508.2757342239 
582, 42977.6980935581 
583, 43360.6989521074 
584, 43592.3623960115 
585, 43564.9165721018 
586, 43271.3233146678 
587, 42936.848103492 
588, 42535.909971098 
589, 41979.3605070254 
590, 41258.3629763318 
591, 41085.089225901 
592, 41344.0432227103 
593, 41694.7000502797 
594, 41627.3210800786 
595, 41385.0272744239 
596, 41073.36683192 
597, 40747.273666174 
598, 40381.0737340429 
599, 39936.2564150494 
600, 39457.318456318 
601, 39044.7373001446 
602, 38722.6321895611 
603, 38557.5788654658 
604, 38547.887403163 
605, 38583.0108061663 
606, 38482.3166740988 
607, 38251.2890786822 
608, 37973.3339186497 
609, 37697.7038421714 
610, 37437.057609847 
611, 37205.514788095 
612, 37016.2091690477 
613, 36806.9589725416 
614, 36557.2750582943 
615, 36287.1018801196 
616, 36082.8014050879 
617, 35950.1331966088 
618, 35954.6798177245 
619, 36142.029792172 
620, 36306.3586459876 
621, 36311.4220930674 
622, 36119.5843955852 
623, 35805.5012357134 
624, 35459.6245206831 
625, 35138.5976997938 
626, 34870.7449199249 
627, 34649.8282094973 
628, 34414.4727950767 
629, 34177.2128031369 
630, 34008.6658168055 
631, 34026.5052242999 
632, 34143.8470916545 
633, 34283.5272603311 
634, 34435.7103046408 
635, 34549.7408889795 
636, 34624.3235285299 
637, 34671.9584657853 
638, 34686.5998582222 
639, 34626.7764445346 
640, 34461.2669307452 
641, 34184.8984155222 
642, 33985.0119385266 
643, 33875.9089310845 
644, 33807.2280009567 
645, 33670.9900091104 
646, 33462.27735905 
647, 33206.6950660348 
648, 32950.3932412291 
649, 32734.7577801028 
650, 32555.3703935568 
651, 32454.1494878449 
652, 32507.2586000022 
653, 32424.7005949029 
654, 32045.1985003507 
655, 31347.3551422764 
656, 30501.3136320409 
657, 29910.3723001955 
658, 29964.0076212397 
659, 30828.8503740189 
660, 31574.8143356598 
661, 31968.3565687808 
662, 32045.4786146311 
663, 32079.5459281014 
664, 32034.5660378188 
665, 31978.8875057696 
666, 31967.0155681002 
667, 31969.5631468698 
668, 31951.7775878622 
669, 31918.9959266627 
670, 31892.4203237892 
671, 31819.2164836272 
672, 31735.3889795102 
673, 31686.3963680539 
674, 31716.4102380704 
675, 31754.024364926 
676, 31777.8262150262 
677, 31787.6008799572 
678, 31804.4488538889 
679, 31811.3506160426 
680, 31803.5352880115 
681, 31783.7371016418 
682, 31760.8566310224 
683, 31686.5213040884 
684, 31420.8275984975 
685, 30711.252545221 
686, 29447.2978037084 
687, 27713.3647060495 
688, 25943.1445157335 
689, 25375.19951201 
690, 26014.2486645878 
691, 27329.6401987356 
692, 28491.8533670817 
693, 29509.0056360137 
694, 30240.0235020838 
695, 30668.3171080945 
696, 30953.5282761799 
697, 31183.0474801703 
698, 31321.9705399693 
699, 31325.8318588371 
700, 31257.1624319738 
701, 31184.7587453372 
702, 31176.7067690877 
703, 31290.0817793084 
704, 31533.3502487444 
705, 31811.9241642792 
706, 32039.1043811876 
707, 32160.1345476178 
708, 32258.9457696872 
709, 32349.1544979018 
710, 32428.6349484067 
711, 32513.6176379354 
712, 32566.4015842179 
713, 32577.7760470048 
714, 32545.7307403652 
715, 32414.2225606209 
716, 32049.2342573886 
717, 31388.6931712623 
718, 30474.6679056076 
719, 29714.7205281277 
720, 29455.1638918833 
721, 29827.378890106 
722, 30555.9255752256 
723, 31030.8184920867 
724, 31081.5280045742 
725, 30865.3202228155 
726, 30848.8978139839 
727, 30944.5515164044 
728, 31047.1132882348 
729, 31099.2983976996 
730, 31282.1516147053 
731, 31621.4594130077 
732, 32076.7467973923 
733, 32557.4576261493 
734, 32959.6305116486 
735, 33202.3384088044 
736, 33253.4929568502 
737, 33208.2830473304 
738, 33142.0809818613 
739, 33070.6784286796 
740, 32966.2292971945 
741, 32921.3504462074 
742, 32952.0980089384 
743, 33046.2213638063 
744, 33172.5508622983 
745, 33250.6535061966 
746, 33277.250759712 
747, 33270.0166600577 
748, 33218.9671828464 
749, 33099.141901303 
750, 32939.3287568909 
751, 32802.7188845633 
752, 32731.9152000161 
753, 32710.4389767338 
754, 32702.5450775688 
755, 32657.6672759762 
756, 32494.9229325172 
757, 31818.2392466316 
758, 29972.3417064684 
759, 25802.3308274639 
760, 19754.9026856959 
761, 13992.2320028474 
762, 11018.6449334842 
763, 11240.2139836304 
764, 13075.1855868159 
765, 15782.053981527 
766, 19356.9467152899 
767, 23167.1166389039 
768, 26403.9006455426 
769, 28598.1577274221 
770, 29792.8968132575 
771, 30359.2288401554 
772, 30564.0400363561 
773, 30601.8465075922 
774, 30566.0776486356 
775, 30478.0176086121 
776, 30371.1574053102 
777, 30267.5262270224 
778, 30129.3378030926 
779, 29968.428805775 
780, 29810.0521593291 
781, 29681.6503170994 
782, 29539.3103299756 
783, 29371.4195112293 
784, 29184.7103560779 
785, 29004.8580466184 
786, 28830.0075843447 
787, 28629.7326422228 
788, 28378.6305090241 
789, 28084.948980959 
790, 27771.1935740349 
791, 27442.8657183204 
792, 27103.7502979538 
793, 26780.3164129628 
794, 26521.111491055 
795, 26352.8659365043 
796, 26273.0852521316 
797, 26217.8906659573 
798, 26112.5219729986 
799, 25924.8488686201 
800, 25679.6857053039 
801, 25416.4230232739 
802, 25172.5511468145 
803, 24961.3574496915 
804, 24748.1534029275 
805, 24561.6741372833 
806, 24389.2145159298 
807, 24201.295974892 
808, 23966.2779159314 
809, 23688.7938153175 
810, 23387.9469658716 
811, 23078.9390563182 
812, 22715.2413078379 
813, 22235.1965561873 
814, 21628.8483575982 
815, 20945.8875488223 
816, 20302.7129907241 
817, 19786.3895697146 
818, 19453.2777375325 
819, 19323.7996792217 
820, 19265.7414609187 
821, 19180.5601490017 
822, 19028.4908249325 
823, 18865.8568149197 
824, 18758.4852108392 
825, 18761.9077466383 
826, 18853.3015073055 
827, 18790.1663612946 
828, 18583.0853121047 
829, 18316.2841042378 
830, 18100.2578062626 
831, 17945.1506686852 
832, 17821.2486944738 
833, 17714.84819448 
834, 17630.1616436423 
835, 17580.3315874985 
836, 17546.2288722722 
837, 17496.7883685262 
838, 17396.1878216855 
839, 17257.2254999029 
840, 17093.0632036814 
841, 16914.9467936188 
842, 16728.8582432264 
843, 16536.2606185528 
844, 16346.7466441579 
845, 16165.1568724984 
846, 15985.2672019289 
847, 15764.0496423979 
848, 15497.8898819088 
849, 15203.078242416 
850, 14908.8880765999 
851, 14565.8338040822 
852, 14213.3294027173 
853, 13923.4630946683 
854, 13703.2013806006 
855, 13523.0203636937 
856, 13437.5338735912 
857, 13521.6066077374 
858, 13646.1372653362 
859, 13664.7562907827 
860, 13555.2020552022 
861, 13402.9539812292 
862, 13215.7762290144 
863, 12979.2432315835 
864, 12699.4558761321 
865, 12410.027803736 
866, 12136.1686264045 
867, 11904.9136188747 
868, 11753.4764989156 
869, 11728.3213208529 
870, 11750.6888755346 
871, 11729.6657363284 
872, 11623.9607202556 
873, 11480.9215873569 
874, 11329.5908508918 
875, 11178.2827215488 
876, 11028.0932183851 
877, 10881.4835780788 
878, 10738.1135761489 
879, 10596.2982022315 
880, 10454.4483925257 
881, 10312.4806751105 
882, 10171.1884174526 
883, 10037.2511420932 
884, 9914.12969262095 
885, 9790.14646055182 
886, 9655.87020179569 
887, 9514.72483378483 
888, 9375.28712023059 
889, 9241.25349277723 
890, 9108.6144033574 
891, 8963.73657671421 
892, 8790.52287036705 
893, 8583.05553981833 
894, 8344.19286161987 
895, 8081.06620522006 
896, 7804.14094375042 
897, 7524.23592778986 
898, 7258.23220628698 
899, 7034.54031714732 
900, 6879.26492357819 
901, 6778.70253961333 
902, 6726.18158904523 
903, 6700.6822338127 
904, 6673.69967244841 
905, 6631.37771265602 
906, 6559.43595040735 
907, 6445.32827595601 
908, 6286.81240132613 
909, 6120.48138294882 
910, 5979.42615475216 
911, 5875.59812041567 
912, 5801.33387563006 
913, 5739.47630760287 
914, 5677.81711713419 
915, 5613.68246212473 
916, 5552.91810383534 
917, 5507.02579538158 
918, 5468.60306185085 
919, 5432.03014565424 
920, 5394.22254551387 
921, 5351.71853934828 
922, 5298.12225753522 
923, 5225.8550098663 
924, 5128.17224873975 
925, 5004.75905216144 
926, 4859.51985416289 
927, 4685.21868657111 
928, 4470.63032256499 
929, 4225.85690422509 
930, 3947.41983776571 
931, 3649.54126916935 
932, 3359.21328368977 
933, 3099.87178589677 
934, 2893.29831677458 
935, 2751.52158735439 
936, 2675.24873534424 
937, 2651.72152643578 
938, 2662.61911778374 
939, 2688.4152692662 
940, 2712.49040734692 
941, 2728.89204847158 
942, 2729.49217874762 
943, 2704.14891007032 
944, 2649.41742498949 
945, 2580.87129539343 
946, 2524.45237903483 
947, 2489.28898258375 
948, 2472.65881253916 
949, 2464.81589847024 
950, 2455.58889415556 
951, 2443.47807415102 
952, 2429.53846169699 
953, 2411.73663822921 
954, 2395.21953495195 
955, 2380.21243971113 
956, 2366.95074545036 
957, 2358.41157974649 
958, 2347.9822269963 
959, 2339.35126822549 
960, 2335.2123046264 
961, 2332.82876050493 
962, 2329.64483836733 
963, 2328.15902331268 
964, 2328.64259503803 
965, 2327.55942263238 
966, 2322.64323632621 
967, 2314.83665904982 
968, 2303.43297481217 
969, 2286.29133759853 
970, 2265.05641468889 
971, 2239.61777828321 
972, 2207.76337603274 
973, 2167.52345047866 
974, 2123.1203707599 
975, 2080.00181509519 
976, 2037.62265348842 
977, 1994.77007714045 
978, 1958.83793311067 
979, 1930.51315213393 
980, 1906.42040685134 
981, 1881.8960758544 
982, 1853.67831226737 
983, 1826.14956563663 
984, 1799.08571256832 
985, 1771.27121745597 
986, 1741.87442441244 
987, 1706.7774978227 
988, 1670.6211948286 
989, 1635.74311870841 
990, 1600.31359563475 
991, 1565.44332292163 
992, 1531.02100799627 
993, 1495.1558194701 
994, 1456.95093121854 
995, 1425.22942491811 
996, 1392.40659202795 
997, 1357.29567741879 
998, 1321.75980031991 
999, 1285.59975761431 
1000, 1251.4510630579 
1001, 7811.19784554666 
1002, 7789.86519295888 
1003, 7764.12483341458 
1004, 7736.03905626701 
1005, 7722.83314731761 
1006, 7716.98873879422 
1007, 7722.19661758624 
1008, 7744.30936214764 
1009, 7766.90699393952 
1010, 7800.40289144469 
1011, 7829.18564265597 
1012, 7858.73040038709 
1013, 7892.75996673112 
1014, 7921.35802801851 
1015, 7952.2308264273 
1016, 7991.75734154706 
1017, 8023.40788968573 
1018, 8064.08528049882 
1019, 8108.32360528271 
1020, 8144.20140742296 
1021, 8188.95164457399 
1022, 8233.63860500103 
1023, 8279.80321653358 
1024, 8322.61738065834 
1025, 8369.1906244461 
1026, 8416.3756860466 
1027, 8462.68529214229 
1028, 8510.93540873893 
1029, 8555.55372835907 
1030, 8594.93849016477 
1031, 8631.04979565651 
1032, 8663.3395984607 
1033, 8700.61593701877 
1034, 8736.81571687212 
1035, 8769.20267964597 
1036, 8798.39553617959 
1037, 8827.45207764507 
1038, 8859.4668388099 
1039, 8889.6215895572 
1040, 8917.54487319867 
1041, 8953.14517682371 
1042, 8977.53082749002 
1043, 8993.19440532671 
1044, 9017.7066124943 
1045, 9038.27497281435 
1046, 9061.5047305527 
1047, 9088.49959931939 
1048, 9123.5983146763 
1049, 9150.89303065223 
1050, 9176.58630194645 
1051, 9210.61596760511 
1052, 9244.84350111939 
1053, 9281.97548839537 
1054, 9322.63196134959 
1055, 9358.88895194569 
1056, 9392.1411339778 
1057, 9424.53805671077 
1058, 9461.76091190064 
1059, 9507.58251674025 
1060, 9564.0547433615 
1061, 9634.33125419559 
1062, 9705.52431807762 
1063, 9786.41663849656 
1064, 9864.7702024178 
1065, 9945.15435310522 
1066, 10032.6383314708 
1067, 10126.1446670676 
1068, 10231.1895528968 
1069, 10353.3699910505 
1070, 10477.6802358596 
1071, 10609.6603771111 
1072, 10752.1534614641 
1073, 10888.6090116368 
1074, 11027.8785798183 
1075, 11157.6126038018 
1076, 11286.7133928477 
1077, 11406.4415367458 
1078, 11512.3962763922 
1079, 11608.7946823956 
1080, 11696.4498225653 
1081, 11772.8217635708 
1082, 11848.0185038109 
1083, 11918.796772624 
1084, 11984.792402343 
1085, 12051.7580354894 
1086, 12112.7027164224 
1087, 12173.6716924477 
1088, 12220.0615458899 
1089, 12264.5905036001 
1090, 12289.3149885131 
1091, 12296.7877191124 
1092, 12297.2636743014 
1093, 12280.9738504747 
1094, 12257.065604357 
1095, 12233.9364923381 
1096, 12205.9267645315 
1097, 12180.8346816698 
1098, 12159.2585259992 
1099, 12137.8561435662 
1100, 12118.9336765205 
1101, 12094.0903406318 
1102, 12075.2491731195 
1103, 12040.667408279 
1104, 12003.6704497407 
1105, 11950.5126911363 
1106, 11886.0005736592 
1107, 11794.8900277383 
1108, 11657.4069409765 
1109, 11473.8081028482 
1110, 11220.1455519483 
1111, 10908.8114329526 
1112, 10550.8179848883 
1113, 10116.3762896069 
1114, 9687.29907669776 
1115, 9190.72021124312 
1116, 8741.46095630186 
1117, 8256.86516694823 
1118, 7844.58772025121 
1119, 7462.42280694956 
1120, 7114.95630029026 
1121, 6830.06429277919 
1122, 6599.41568231488 
1123, 6432.94311902 
1124, 6324.68167615788 
1125, 6272.99277767433 
1126, 6303.61261430252 
1127, 6334.23262774064 
1128, 6420.62846046834 
1129, 6503.6860615639 
1130, 6612.87533185714 
1131, 6724.00068469794 
1132, 6839.24742631424 
1133, 6977.2212084394 
1134, 7123.48620887274 
1135, 7283.99228947549 
1136, 7510.40176894643 
1137, 7743.95077181418 
1138, 7974.26149857369 
1139, 8188.86941506238 
1140, 8328.14237420441 
1141, 8423.3064337061 
1142, 8467.08970646298 
1143, 8426.5512572085 
1144, 8408.52595516675 
1145, 8297.9845802237 
1146, 8293.88115353366 
1147, 8295.15257639297 
1148, 8376.48410848467 
1149, 8537.16356132632 
1150, 8727.93889418656 
1151, 8982.57782209812 
1152, 9277.81455595467 
1153, 9577.25944790899 
1154, 9924.39586601507 
1155, 10249.6322263445 
1156, 10592.1831751738 
1157, 10906.9210133271 
1158, 11225.1961936069 
1159, 11515.4083359201 
1160, 11792.108893266 
1161, 12039.9038819186 
1162, 12269.9705346126 
1163, 12473.2090639419 
1164, 12646.7488953154 
1165, 12798.6495177759 
1166, 12937.2247932471 
1167, 13043.7359421976 
1168, 13123.4323375992 
1169, 13176.1664942991 
1170, 13208.039276071 
1171, 13207.6485225364 
1172, 13197.1967679416 
1173, 13164.1165921097 
1174, 13124.3102013174 
1175, 13061.3351821157 
1176, 12999.7397379087 
1177, 12926.7930402114 
