Wavelength,0212202100143.asd
350, 2701.98822557346 
351, 2841.8492665615 
352, 2969.35590052911 
353, 3078.95694162049 
354, 3186.46989632945 
355, 3299.18611423685 
356, 3418.27734309908 
357, 3534.72583637949 
358, 3656.21224829827 
359, 3786.05900007082 
360, 3928.43151177574 
361, 4103.34622183803 
362, 4304.57791393018 
363, 4522.4374593885 
364, 4746.22724721836 
365, 4971.43716248904 
366, 5186.64252033928 
367, 5376.63746509948 
368, 5522.30673196914 
369, 5607.3898936986 
370, 5637.09539130265 
371, 5629.12879411656 
372, 5606.03691366947 
373, 5597.62565304373 
374, 5607.69285110067 
375, 5621.44636596764 
376, 5636.47369267946 
377, 5645.72813211331 
378, 5635.51826358476 
379, 5584.60493684913 
380, 5517.59125188644 
381, 5443.30046642792 
382, 5361.80928671603 
383, 5258.22713094996 
384, 5153.20219982823 
385, 5080.9760502554 
386, 5081.29067853988 
387, 5187.55261542835 
388, 5339.27094442434 
389, 5471.19072625529 
390, 5529.55568730665 
391, 5594.00103763797 
392, 5656.70564969523 
393, 5705.36605890701 
394, 5747.46252936987 
395, 5866.38103280812 
396, 6101.35122580771 
397, 6468.1783062494 
398, 6982.31329930179 
399, 7565.50278438916 
400, 8163.95823507876 
401, 8751.02139526057 
402, 9306.13719535662 
403, 9762.54746571302 
404, 10092.6339102398 
405, 10347.9692172298 
406, 10551.5848423398 
407, 10734.9218090336 
408, 10935.1478607184 
409, 11205.5182431573 
410, 11529.9385754557 
411, 11889.2697715082 
412, 12263.5105825933 
413, 12636.0440827078 
414, 13004.8976087007 
415, 13360.1721980593 
416, 13672.6976861507 
417, 13968.5516436071 
418, 14270.8532196634 
419, 14586.3471487324 
420, 14861.0942942771 
421, 15138.5925613536 
422, 15441.5668659677 
423, 15768.6654254147 
424, 16069.7463752711 
425, 16306.9362779433 
426, 16447.474665027 
427, 16459.1888424244 
428, 16399.1070225637 
429, 16412.3551423037 
430, 16615.9552122703 
431, 16914.2651127141 
432, 17307.882477713 
433, 17885.3047224948 
434, 18760.7684831332 
435, 19693.649872738 
436, 20406.5980698037 
437, 20842.2257239112 
438, 21306.8745072652 
439, 21785.9166073372 
440, 22236.5279985084 
441, 22641.5836938975 
442, 23169.7744464137 
443, 23725.9882585321 
444, 24235.5188445647 
445, 24652.0561579388 
446, 24987.8449706048 
447, 25289.6252034564 
448, 25609.2110750924 
449, 26005.9405285024 
450, 26341.2553080763 
451, 26522.4454003315 
452, 26515.2334657362 
453, 26448.9840396011 
454, 26301.4280047104 
455, 26113.5004015883 
456, 25983.2568368912 
457, 25952.5305712414 
458, 25961.9185769912 
459, 25947.1791097244 
460, 25877.4021612801 
461, 25774.5826641947 
462, 25664.3910782736 
463, 25558.5021959479 
464, 25390.5802179641 
465, 25130.5472271637 
466, 24809.282405821 
467, 24515.2510268932 
468, 24265.4794204966 
469, 24079.7239889193 
470, 23967.5652314356 
471, 23928.5177865311 
472, 23900.7016243344 
473, 23892.2866574385 
474, 23930.1814066203 
475, 23921.2772686779 
476, 23893.9398652323 
477, 23878.5859836354 
478, 23893.3929482588 
479, 23973.0345967089 
480, 24082.5797844454 
481, 24160.7559017862 
482, 24144.0925658784 
483, 23966.0399165264 
484, 23589.2208897634 
485, 23027.751728612 
486, 22484.1399785924 
487, 22098.3332928956 
488, 21984.0498951252 
489, 22242.7679548964 
490, 22654.0896844867 
491, 22993.2675781223 
492, 23114.6823310744 
493, 23158.9024290231 
494, 23224.0497400335 
495, 23355.1104851283 
496, 23536.5420526022 
497, 23595.0364163542 
498, 23530.7323513484 
499, 23382.0710736946 
500, 23183.6611362509 
501, 23031.9278781638 
502, 22969.8858068604 
503, 23018.2320119283 
504, 23231.2167138356 
505, 23528.4717480072 
506, 23831.2864769276 
507, 24076.3466826135 
508, 24262.1760761188 
509, 24408.3418306702 
510, 24546.4974151294 
511, 24730.7319263896 
512, 24858.6049772854 
513, 24884.637775526 
514, 24798.8857449788 
515, 24592.8998174236 
516, 24316.4223050704 
517, 24049.4447887972 
518, 23895.8240431157 
519, 24100.4285714012 
520, 24684.0844466155 
521, 25506.0569579962 
522, 26189.8743141302 
523, 26700.7219973093 
524, 27060.1359634633 
525, 27326.8470958561 
526, 27443.3144090921 
527, 27488.7698220816 
528, 27629.5060021384 
529, 28186.4394923572 
530, 28907.8238170463 
531, 29514.0195815307 
532, 29779.938804365 
533, 29869.4676005645 
534, 30005.7506916181 
535, 30308.1984688533 
536, 30766.5563785068 
537, 31095.9995919308 
538, 31248.1656392548 
539, 31267.7571035189 
540, 31257.9391954001 
541, 31285.3225634183 
542, 31444.867845943 
543, 31811.8649645085 
544, 32232.3200486386 
545, 32599.8548119901 
546, 32856.9755028918 
547, 33006.8697766914 
548, 33104.1079292617 
549, 33217.8783277096 
550, 33392.7651192504 
551, 33571.2017834401 
552, 33708.5051652938 
553, 33809.2758456012 
554, 33915.7861229073 
555, 33997.7057612809 
556, 33968.6030868972 
557, 33781.0466431806 
558, 33470.0515550661 
559, 33204.3790353134 
560, 33083.8142196846 
561, 33143.7716337599 
562, 33295.453549515 
563, 33382.5976789962 
564, 33329.7082295771 
565, 33164.3040692064 
566, 32932.2415580039 
567, 32694.9164454926 
568, 32489.4491471905 
569, 32279.6588430723 
570, 32012.2051536752 
571, 31760.783607648 
572, 31666.4173305095 
573, 31693.5078494587 
574, 31684.4902382856 
575, 31539.6014519953 
576, 31274.8607627426 
577, 31033.4530551893 
578, 30908.4230029347 
579, 30949.718299736 
580, 31121.0065122228 
581, 31413.3816489562 
582, 31764.4729749249 
583, 32063.509850611 
584, 32253.995023957 
585, 32254.3346679647 
586, 32053.1587265153 
587, 31797.7881481246 
588, 31474.3033601962 
589, 31035.705410322 
590, 30490.2048029308 
591, 30295.7246318726 
592, 30438.0819930752 
593, 30702.6018628671 
594, 30689.7858740121 
595, 30537.0043239866 
596, 30321.0204434485 
597, 30095.0671481656 
598, 29854.5922894659 
599, 29554.4638454606 
600, 29220.0720395382 
601, 28926.086256662 
602, 28701.5927886834 
603, 28582.6478539663 
604, 28565.4648594603 
605, 28590.1035279104 
606, 28527.9244430877 
607, 28369.5138575228 
608, 28162.2063683984 
609, 27961.2121900279 
610, 27771.6118535846 
611, 27600.0008449018 
612, 27454.3644078531 
613, 27302.5186551404 
614, 27124.0973728135 
615, 26926.9370642048 
616, 26772.7125176258 
617, 26678.6867426728 
618, 26679.8664992959 
619, 26792.8733069932 
620, 26911.3686500817 
621, 26922.8726220571 
622, 26789.2257018424 
623, 26563.8045157194 
624, 26306.2196874663 
625, 26060.9250899384 
626, 25850.674324045 
627, 25657.9964979215 
628, 25465.5735877565 
629, 25285.0249772221 
630, 25154.7917419384 
631, 25165.88590543 
632, 25258.5143934852 
633, 25374.969954982 
634, 25498.891816176 
635, 25594.3618993227 
636, 25660.7153720707 
637, 25706.3261272081 
638, 25721.1097239749 
639, 25680.8167466014 
640, 25567.1673272978 
641, 25377.6876869096 
642, 25230.0136889608 
643, 25140.9871832068 
644, 25081.4545904707 
645, 24973.6684822622 
646, 24805.5898762622 
647, 24595.0123499282 
648, 24380.7266783545 
649, 24208.6882607538 
650, 24079.5442569931 
651, 24013.7123823719 
652, 24045.0769614051 
653, 23990.3602196929 
654, 23722.9702556438 
655, 23221.8181963111 
656, 22638.9823506913 
657, 22217.6277979254 
658, 22223.5303498938 
659, 22794.6930159892 
660, 23374.5216779485 
661, 23706.5580511508 
662, 23773.7667743383 
663, 23806.4283271716 
664, 23781.4942887816 
665, 23741.1118347734 
666, 23722.5094859273 
667, 23726.9844900109 
668, 23715.2786878997 
669, 23688.8575221281 
670, 23667.4308584745 
671, 23616.9454044255 
672, 23557.784679186 
673, 23519.1509052263 
674, 23533.4473453515 
675, 23561.8044749779 
676, 23581.1340550967 
677, 23583.0842050413 
678, 23591.9363205797 
679, 23594.5804748029 
680, 23588.3748568052 
681, 23575.6799180636 
682, 23552.1543573041 
683, 23492.473456616 
684, 23293.1760889602 
685, 22748.6486776463 
686, 21787.6226670155 
687, 20499.2590966522 
688, 19197.9812675037 
689, 18655.5745324297 
690, 19048.7806375117 
691, 20017.9221179875 
692, 20885.5712279652 
693, 21634.7091457321 
694, 22174.3210594546 
695, 22501.5693963602 
696, 22729.3207806002 
697, 22929.0068074709 
698, 23065.1980097203 
699, 23089.2371078661 
700, 23025.3067502835 
701, 22962.103902139 
702, 22960.5446225445 
703, 23054.3249825162 
704, 23244.9717626467 
705, 23467.3882185038 
706, 23657.4012146005 
707, 23765.8187494384 
708, 23858.0283335506 
709, 23940.775405971 
710, 24008.8956428363 
711, 24074.2993165918 
712, 24118.7164238372 
713, 24128.8726338461 
714, 24086.9114534309 
715, 23942.7160496213 
716, 23588.3785920084 
717, 22978.5227730215 
718, 22156.1562566205 
719, 21473.6072377099 
720, 21225.2978729391 
721, 21520.9841642218 
722, 22122.8968348406 
723, 22535.6726674051 
724, 22588.1674556814 
725, 22372.91753406 
726, 22315.151236264 
727, 22379.3810383703 
728, 22483.5165821663 
729, 22550.0373429771 
730, 22712.5445202815 
731, 23001.8378161479 
732, 23398.7409954067 
733, 23839.5880413061 
734, 24224.4921416001 
735, 24472.9494435635 
736, 24547.5433706457 
737, 24527.4242457652 
738, 24495.8237825936 
739, 24472.3416241321 
740, 24425.3398776207 
741, 24412.2859953629 
742, 24447.1339872852 
743, 24523.8915621062 
744, 24619.3758790588 
745, 24682.8336588684 
746, 24707.8815287542 
747, 24701.9436390727 
748, 24661.0204861545 
749, 24572.2211316383 
750, 24453.0050764429 
751, 24342.4571026474 
752, 24282.9830547231 
753, 24259.177480411 
754, 24243.9417717973 
755, 24203.81300782 
756, 24070.5212509542 
757, 23548.746141562 
758, 22167.5513026323 
759, 19129.4418326794 
760, 14679.7290876311 
761, 10323.1715276487 
762, 7875.00829564817 
763, 7850.70330040182 
764, 9121.93904635002 
765, 11114.0898765022 
766, 13757.6426161629 
767, 16639.036322975 
768, 19136.5557665019 
769, 20867.6635897826 
770, 21828.6621264808 
771, 22296.1631294969 
772, 22469.3288304024 
773, 22499.0617825452 
774, 22471.0602668147 
775, 22398.748223946 
776, 22308.0144503309 
777, 22218.3209310208 
778, 22109.2835086418 
779, 21982.4265889834 
780, 21853.4952365951 
781, 21745.1012907611 
782, 21632.8960199465 
783, 21501.4850955976 
784, 21351.0516378112 
785, 21202.5856516899 
786, 21052.5366602395 
787, 20881.8179019023 
788, 20674.1977402407 
789, 20430.981231272 
790, 20177.2835346182 
791, 19924.1741441489 
792, 19677.3328497555 
793, 19446.0203346625 
794, 19259.5652550466 
795, 19132.0729803643 
796, 19058.8213254619 
797, 19003.4533040826 
798, 18923.3434700662 
799, 18792.3665311518 
800, 18607.9705629929 
801, 18407.2476606107 
802, 18222.8184823604 
803, 18068.3379956122 
804, 17920.6188492321 
805, 17796.4636835577 
806, 17684.0233751511 
807, 17557.9945506619 
808, 17385.5290968278 
809, 17175.7595406466 
810, 16940.5699688576 
811, 16684.9733747212 
812, 16374.3822682406 
813, 15964.9908153373 
814, 15453.4111533228 
815, 14883.5048606008 
816, 14361.5287236553 
817, 13960.4990664872 
818, 13725.1131056774 
819, 13668.7361519335 
820, 13672.0667029604 
821, 13640.4521052951 
822, 13535.4345231398 
823, 13414.516536438 
824, 13338.2505452168 
825, 13362.0065727822 
826, 13471.7728278838 
827, 13456.3425572819 
828, 13311.5676762956 
829, 13110.2896694711 
830, 12955.918050923 
831, 12863.339702815 
832, 12799.0467568185 
833, 12748.121309983 
834, 12715.0241103875 
835, 12703.0042171244 
836, 12701.400919183 
837, 12687.4210160707 
838, 12629.7787733021 
839, 12540.0227335688 
840, 12428.5789428052 
841, 12304.6118049168 
842, 12173.8821910105 
843, 12036.855304287 
844, 11900.446015746 
845, 11768.3786873289 
846, 11636.3961833667 
847, 11476.8548591135 
848, 11283.4187986628 
849, 11063.9258232008 
850, 10843.5389133797 
851, 10589.1554123139 
852, 10326.5396301235 
853, 10104.7445019967 
854, 9936.78668211502 
855, 9800.16711128018 
856, 9731.12882481305 
857, 9781.36051206135 
858, 9866.94285731627 
859, 9878.06986914551 
860, 9795.11480838577 
861, 9678.61440716862 
862, 9539.65707625628 
863, 9362.65401407965 
864, 9151.08231423232 
865, 8934.13629858027 
866, 8727.46610713604 
867, 8549.81423306311 
868, 8428.85505080651 
869, 8400.62763960317 
870, 8407.09571479015 
871, 8384.90076787794 
872, 8304.26721731958 
873, 8194.47437004852 
874, 8077.35243354548 
875, 7959.64560832352 
876, 7843.19168138163 
877, 7731.28782091565 
878, 7621.2969505783 
879, 7512.19051782753 
880, 7403.22548423995 
881, 7292.82660763853 
882, 7184.6436371358 
883, 7082.34201731072 
884, 6986.672588549 
885, 6890.66389970171 
886, 6788.81216386875 
887, 6683.19801505067 
888, 6578.68851556677 
889, 6476.3285924646 
890, 6375.85936807379 
891, 6264.14441988883 
892, 6125.30515689062 
893, 5959.45517513196 
894, 5769.03438836549 
895, 5559.55721668573 
896, 5339.13565728146 
897, 5116.42790471454 
898, 4907.66737355918 
899, 4735.8435177442 
900, 4620.93666922752 
901, 4554.46754424169 
902, 4527.1068772074 
903, 4519.33373515962 
904, 4507.52289664483 
905, 4482.68928189033 
906, 4433.0604449086 
907, 4349.01732387467 
908, 4229.50029178305 
909, 4102.49695356521 
910, 3995.91827733432 
911, 3919.66404364648 
912, 3866.76959052406 
913, 3821.3799768718 
914, 3778.72595742654 
915, 3737.26917713403 
916, 3698.9838087179 
917, 3674.17201848276 
918, 3657.68148734305 
919, 3644.36584268216 
920, 3630.14428754684 
921, 3611.77552677127 
922, 3582.41297955086 
923, 3534.78573294526 
924, 3463.52819595864 
925, 3372.0773578066 
926, 3262.09567540121 
927, 3129.24190038561 
928, 2966.78433122187 
929, 2776.85571159185 
930, 2562.21595121385 
931, 2336.06228353072 
932, 2118.46409469744 
933, 1926.4924522686 
934, 1773.70617781275 
935, 1670.55564426951 
936, 1620.05252063917 
937, 1607.96497471134 
938, 1621.99052467045 
939, 1646.10096803188 
940, 1666.33230179165 
941, 1682.22426289898 
942, 1688.54949068355 
943, 1675.57317173639 
944, 1638.55805374355 
945, 1591.99722372252 
946, 1554.08574582184 
947, 1531.2543800752 
948, 1521.43613577173 
949, 1517.01564316908 
950, 1514.39529870277 
951, 1511.20962485785 
952, 1506.1182033288 
953, 1498.25364877916 
954, 1488.43427269496 
955, 1479.10584226891 
956, 1472.62681188283 
957, 1470.06590955032 
958, 1466.49091286925 
959, 1464.40597315795 
960, 1465.27436388949 
961, 1466.32344472836 
962, 1467.88850631855 
963, 1472.51371749013 
964, 1479.16267215092 
965, 1482.74205022964 
966, 1485.4539196941 
967, 1484.79585064599 
968, 1479.91640412964 
969, 1472.04934448276 
970, 1462.16585739197 
971, 1447.07202873874 
972, 1424.92238668146 
973, 1396.40098581176 
974, 1366.79320481154 
975, 1335.32668552888 
976, 1303.7007843986 
977, 1274.89428120677 
978, 1251.4562292287 
979, 1231.62966384377 
980, 1215.30643203565 
981, 1200.70407150114 
982, 1181.23032875262 
983, 1163.035908182 
984, 1145.54432327594 
985, 1127.18765099751 
986, 1107.68514881207 
987, 1084.72304750127 
988, 1061.76605978393 
989, 1039.288950535 
990, 1014.10561295434 
991, 989.493017931459 
992, 964.521259862186 
993, 940.498996888331 
994, 918.938517846547 
995, 893.459768224237 
996, 869.639974122405 
997, 846.868503615577 
998, 822.945711368584 
999, 800.805732999381 
1000, 778.950540472975 
1001, 4973.72665702659 
1002, 4953.08583499216 
1003, 4929.00937664623 
1004, 4909.80273454476 
1005, 4894.45913038907 
1006, 4883.77499407672 
1007, 4878.53170270232 
1008, 4876.29658992234 
1009, 4877.14061290636 
1010, 4878.3052665424 
1011, 4883.39225824034 
1012, 4892.98191007204 
1013, 4909.07936217357 
1014, 4918.94042078299 
1015, 4932.46034509188 
1016, 4951.25826616588 
1017, 4967.66464050431 
1018, 4982.59909977202 
1019, 4999.73590837127 
1020, 5015.62586466965 
1021, 5029.11579992476 
1022, 5048.00179893971 
1023, 5070.39153780602 
1024, 5097.62943315333 
1025, 5124.91126522999 
1026, 5156.67097478594 
1027, 5194.29906829085 
1028, 5227.82083999795 
1029, 5259.22909556043 
1030, 5288.47135927064 
1031, 5306.87052714616 
1032, 5325.06225582143 
1033, 5346.20402082777 
1034, 5365.31311916123 
1035, 5387.64091610167 
1036, 5412.70816354268 
1037, 5439.8538681291 
1038, 5464.11221196488 
1039, 5488.48611734616 
1040, 5516.28714257043 
1041, 5540.81613442802 
1042, 5559.78711969892 
1043, 5576.56314638071 
1044, 5588.73918502512 
1045, 5602.58836714434 
1046, 5622.23762710962 
1047, 5645.47074564031 
1048, 5675.66003951194 
1049, 5704.3061743136 
1050, 5727.1352887703 
1051, 5752.28247350188 
1052, 5776.89568774808 
1053, 5806.39599237441 
1054, 5839.48494118052 
1055, 5869.42183788617 
1056, 5899.86021452392 
1057, 5929.34881966767 
1058, 5961.06623122279 
1059, 6003.04198202348 
1060, 6050.82741426586 
1061, 6106.71323829135 
1062, 6162.59013144472 
1063, 6225.36350216331 
1064, 6286.48381211041 
1065, 6345.07318568458 
1066, 6410.76273684183 
1067, 6480.59447507954 
1068, 6558.5391384763 
1069, 6643.53824374718 
1070, 6736.24792742714 
1071, 6838.81205722838 
1072, 6938.45451479066 
1073, 7036.14451728915 
1074, 7141.41094202445 
1075, 7234.07550018906 
1076, 7319.6726813944 
1077, 7401.73994270443 
1078, 7476.31265862218 
1079, 7540.8132354863 
1080, 7597.97216921627 
1081, 7648.874859523 
1082, 7694.51418986789 
1083, 7737.43286512977 
1084, 7777.74353740164 
1085, 7815.33868412472 
1086, 7850.89780386736 
1087, 7888.96648927437 
1088, 7915.8048643892 
1089, 7941.84037506283 
1090, 7953.46900564654 
1091, 7955.57669031923 
1092, 7945.74373468167 
1093, 7923.55284573892 
1094, 7897.98367421329 
1095, 7871.16894483664 
1096, 7841.85282872253 
1097, 7813.27593005504 
1098, 7776.03922874622 
1099, 7739.77251696225 
1100, 7697.86184512259 
1101, 7660.71272688105 
1102, 7628.91342885306 
1103, 7589.05258516928 
1104, 7553.06404673086 
1105, 7504.22615880885 
1106, 7444.80321453004 
1107, 7371.16050409011 
1108, 7266.35501591193 
1109, 7125.22882496623 
1110, 6935.58246862745 
1111, 6701.19049747553 
1112, 6435.51326065836 
1113, 6112.21142542026 
1114, 5798.81276746057 
1115, 5439.3121319557 
1116, 5118.60787316108 
1117, 4781.53147192957 
1118, 4488.10352449135 
1119, 4217.18824249821 
1120, 3967.48621784165 
1121, 3758.40086685839 
1122, 3593.28283730778 
1123, 3474.30445376979 
1124, 3397.68787952647 
1125, 3357.96154082882 
1126, 3372.55017098591 
1127, 3392.50344803648 
1128, 3454.02288109433 
1129, 3510.89738806303 
1130, 3590.1035794857 
1131, 3663.0357396102 
1132, 3732.78914412856 
1133, 3821.10121842987 
1134, 3913.11546329111 
1135, 4015.77095310923 
1136, 4166.0030801491 
1137, 4320.49755652487 
1138, 4465.38176875056 
1139, 4601.49023354761 
1140, 4682.42584460637 
1141, 4726.29031973495 
1142, 4740.26023762582 
1143, 4698.65285121713 
1144, 4670.98877297943 
1145, 4580.18590859326 
1146, 4564.05852586077 
1147, 4550.18259808512 
1148, 4592.52066197205 
1149, 4691.88289048216 
1150, 4812.45456123591 
1151, 4976.37090603881 
1152, 5165.75966486712 
1153, 5356.25784361738 
1154, 5578.47516302677 
1155, 5783.1824279543 
1156, 5994.42467411222 
1157, 6193.66790395237 
1158, 6396.67783417001 
1159, 6580.64677660977 
1160, 6759.92967125944 
1161, 6915.9407980096 
1162, 7058.25973267936 
1163, 7181.90488661935 
1164, 7286.01962462555 
1165, 7373.97507495874 
1166, 7445.7199954359 
1167, 7493.69548889804 
1168, 7525.07464597532 
1169, 7533.41815101482 
1170, 7533.75725260187 
1171, 7517.18603687598 
1172, 7490.07487790592 
1173, 7447.00803205366 
1174, 7399.12941715365 
1175, 7337.01812126841 
1176, 7272.39573543129 
1177, 7196.8399218556 
