Wavelength,0212202100020.asd
350, 3648.65172406029 
351, 3835.83174927925 
352, 4007.47662691163 
353, 4156.94311748319 
354, 4308.19273356777 
355, 4466.55883100265 
356, 4630.45234518144 
357, 4794.54045251476 
358, 4964.61707088386 
359, 5148.21133053069 
360, 5355.58723338604 
361, 5606.33400694672 
362, 5885.93043011449 
363, 6181.7429983081 
364, 6486.01339311177 
365, 6795.47475948985 
366, 7089.6912596153 
367, 7344.2830414684 
368, 7534.29444956592 
369, 7646.11134684058 
370, 7688.42693655769 
371, 7684.46324564515 
372, 7666.13529189753 
373, 7665.99844756287 
374, 7687.60665581646 
375, 7713.62547138997 
376, 7740.21116891698 
377, 7754.46608879474 
378, 7736.9815999799 
379, 7661.87073078664 
380, 7571.70474138152 
381, 7473.22857776542 
382, 7362.4618199797 
383, 7229.3363656637 
384, 7098.76600359532 
385, 7018.27082286988 
386, 7041.46220120012 
387, 7197.28065375507 
388, 7393.78643206516 
389, 7555.69854590759 
390, 7644.03948286811 
391, 7743.3878691972 
392, 7829.80089553403 
393, 7889.82554518255 
394, 7969.50039362242 
395, 8166.82111416385 
396, 8525.21136646776 
397, 9056.99127276668 
398, 9772.76530071287 
399, 10582.7536114813 
400, 11415.2992526151 
401, 12221.596689859 
402, 12971.2690976439 
403, 13590.6303427861 
404, 14051.2601969678 
405, 14411.7501937861 
406, 14699.1092108961 
407, 14961.664032761 
408, 15255.8707573446 
409, 15645.185877181 
410, 16107.0769032902 
411, 16614.1551684996 
412, 17137.8978823799 
413, 17661.9692335065 
414, 18178.2705986191 
415, 18671.0980986526 
416, 19106.357690105 
417, 19529.2840182115 
418, 19962.0739463084 
419, 20403.7937072476 
420, 20793.4016004394 
421, 21191.4920054631 
422, 21624.2186293553 
423, 22081.644689212 
424, 22501.5138644911 
425, 22831.2327765171 
426, 23021.5232898976 
427, 23017.4016161622 
428, 22948.5522224369 
429, 23007.2064618871 
430, 23328.1368998325 
431, 23758.8405472281 
432, 24347.7313610952 
433, 25212.2850984613 
434, 26463.9895430211 
435, 27724.6819841683 
436, 28687.8274967922 
437, 29316.0846981966 
438, 29985.7050745836 
439, 30662.9225285575 
440, 31306.6200526933 
441, 31909.5398336522 
442, 32665.9262550427 
443, 33445.0541111724 
444, 34155.0054421636 
445, 34748.5495959326 
446, 35226.8711854481 
447, 35667.0815822017 
448, 36142.5653026617 
449, 36711.4465800179 
450, 37164.1480180686 
451, 37394.5659428313 
452, 37383.4136654536 
453, 37288.841208778 
454, 37089.5912338166 
455, 36843.8852979702 
456, 36680.6248095991 
457, 36648.5204685123 
458, 36665.2871465252 
459, 36646.1250594096 
460, 36557.3235136798 
461, 36421.8903433338 
462, 36272.3062667227 
463, 36123.1518506696 
464, 35879.2681756757 
465, 35509.3737558599 
466, 35062.8203435331 
467, 34663.2005736948 
468, 34320.5564273301 
469, 34070.2950561223 
470, 33930.7393967351 
471, 33886.2534001121 
472, 33862.2110068572 
473, 33864.6752772448 
474, 33920.7465595025 
475, 33911.4109553967 
476, 33883.6602520814 
477, 33878.5109304007 
478, 33909.653527415 
479, 34036.4042112129 
480, 34197.9064401702 
481, 34298.5208249353 
482, 34264.3740231505 
483, 33989.2677860512 
484, 33426.1715127705 
485, 32614.0209596731 
486, 31867.2184158506 
487, 31364.6425783862 
488, 31249.8928016439 
489, 31664.3990608797 
490, 32250.7740766894 
491, 32711.1100249703 
492, 32875.2562588181 
493, 32944.8947554128 
494, 33056.4953788494 
495, 33260.7498441276 
496, 33516.5084910217 
497, 33590.2763216112 
498, 33490.6347766799 
499, 33277.3089283856 
500, 32998.2343145311 
501, 32800.7801271657 
502, 32740.5228441509 
503, 32836.746154192 
504, 33173.7561953612 
505, 33617.6925442302 
506, 34049.886233062 
507, 34389.4967529411 
508, 34649.8104294434 
509, 34858.2078499859 
510, 35055.8284399582 
511, 35319.5208942279 
512, 35494.8639117353 
513, 35520.8131137221 
514, 35391.7275119841 
515, 35081.7344324285 
516, 34674.979796262 
517, 34298.5616489068 
518, 34108.8853372357 
519, 34458.2432423225 
520, 35347.5218400554 
521, 36544.226668219 
522, 37504.7344140248 
523, 38218.3843016936 
524, 38726.1134578249 
525, 39097.8448099508 
526, 39243.0493968524 
527, 39307.8757591288 
528, 39547.3219070857 
529, 40396.8396620814 
530, 41460.4551144638 
531, 42315.8526642157 
532, 42643.358863291 
533, 42759.6358705465 
534, 42976.1802665636 
535, 43441.3948551632 
536, 44110.0659453839 
537, 44568.6341319881 
538, 44765.5291426258 
539, 44783.708748088 
540, 44774.1295202927 
541, 44828.8424474783 
542, 45086.0053497664 
543, 45653.2443404204 
544, 46268.1262960619 
545, 46790.4527914715 
546, 47150.0041052851 
547, 47351.9775607208 
548, 47491.0533075911 
549, 47663.560069263 
550, 47923.4921885486 
551, 48179.2538725478 
552, 48373.8416995104 
553, 48519.6311842036 
554, 48680.3594111208 
555, 48802.1829861171 
556, 48752.3556937461 
557, 48463.6483789708 
558, 48004.5155049397 
559, 47631.7439152079 
560, 47487.9525192729 
561, 47611.8311961108 
562, 47850.7513301957 
563, 47979.1415497927 
564, 47896.354849362 
565, 47657.1871719076 
566, 47326.1613603481 
567, 47002.4709628662 
568, 46741.3292207573 
569, 46458.9201977843 
570, 46077.4603964587 
571, 45720.6198223442 
572, 45617.5353617221 
573, 45705.0053494554 
574, 45712.7746681235 
575, 45483.1341553679 
576, 45078.9896528898 
577, 44730.5063013889 
578, 44560.1282785991 
579, 44620.4422671271 
580, 44873.2085219354 
581, 45310.6275956446 
582, 45831.3449414928 
583, 46251.353432932 
584, 46508.8992970292 
585, 46485.9655295895 
586, 46174.9554238981 
587, 45828.9449521798 
588, 45409.0771064969 
589, 44812.7804933696 
590, 44032.0508787875 
591, 43873.4373893659 
592, 44176.1368906899 
593, 44557.055609477 
594, 44485.415883312 
595, 44228.6682355706 
596, 43902.6531352598 
597, 43565.5852658339 
598, 43185.4313328411 
599, 42714.8493886585 
600, 42205.7241235898 
601, 41775.5114386843 
602, 41438.4489322599 
603, 41272.6975136934 
604, 41277.9940038747 
605, 41323.5958541061 
606, 41218.8934387404 
607, 40975.2541711335 
608, 40686.1284340117 
609, 40395.0038016096 
610, 40122.5283470555 
611, 39885.0657457094 
612, 39691.7763296948 
613, 39475.4690991617 
614, 39214.8463705745 
615, 38932.2410805801 
616, 38720.7400553953 
617, 38587.4867050506 
618, 38605.4950135136 
619, 38824.2738845989 
620, 39006.0227331376 
621, 39014.2621434778 
622, 38812.8506439093 
623, 38476.2622124116 
624, 38112.5796841142 
625, 37778.0720769337 
626, 37496.7730860827 
627, 37264.0228333415 
628, 37008.8850692367 
629, 36753.5852378779 
630, 36588.8422554265 
631, 36625.5176210177 
632, 36771.5713751974 
633, 36943.9097002514 
634, 37126.1071577114 
635, 37260.7043128981 
636, 37351.6365844827 
637, 37418.6273736259 
638, 37453.3398678143 
639, 37401.4093260974 
640, 37227.6179355871 
641, 36932.6627809348 
642, 36731.159823207 
643, 36631.7494419144 
644, 36571.416205782 
645, 36427.8327650968 
646, 36206.5197966019 
647, 35936.9934648423 
648, 35667.0750501037 
649, 35438.5003747626 
650, 35252.4468719974 
651, 35156.9046024308 
652, 35232.3455399842 
653, 35150.5418708401 
654, 34741.5829543992 
655, 33985.9352858857 
656, 33053.8812917381 
657, 32417.8313835337 
658, 32509.6987196245 
659, 33497.1354989356 
660, 34305.8948949378 
661, 34725.2609925127 
662, 34815.3083433199 
663, 34855.8410442377 
664, 34811.7291536959 
665, 34757.4639005067 
666, 34751.4603338041 
667, 34759.5426644047 
668, 34747.8080159313 
669, 34721.7144396017 
670, 34701.3648915508 
671, 34626.2594869874 
672, 34539.3987323632 
673, 34493.3502457242 
674, 34537.2179804198 
675, 34586.9396942528 
676, 34620.6679934944 
677, 34640.0927002578 
678, 34663.753402294 
679, 34678.2621450957 
680, 34678.9655364542 
681, 34666.543878726 
682, 34651.1346225457 
683, 34579.578253823 
684, 34296.273996444 
685, 33519.5607440553 
686, 32118.2419702761 
687, 30176.5380150054 
688, 28187.3442939165 
689, 27609.889271834 
690, 28366.6442457514 
691, 29845.707905995 
692, 31145.1370097254 
693, 32279.4980110781 
694, 33092.8840551255 
695, 33569.3663035985 
696, 33892.494063957 
697, 34160.9073990436 
698, 34328.656626876 
699, 34340.2369781209 
700, 34271.6960356656 
701, 34202.0905222928 
702, 34206.4321578008 
703, 34345.481438811 
704, 34629.7537815218 
705, 34949.4129542707 
706, 35207.4710456351 
707, 35349.013382729 
708, 35466.3657459833 
709, 35573.7888309941 
710, 35668.1537464782 
711, 35767.7351682726 
712, 35829.2481827104 
713, 35843.4770861551 
714, 35809.6042623236 
715, 35658.6548751028 
716, 35244.1881332265 
717, 34497.8735199941 
718, 33463.5935505168 
719, 32612.7584842016 
720, 32335.5632575255 
721, 32772.974322375 
722, 33599.9090613573 
723, 34116.0772270976 
724, 34145.7608173615 
725, 33893.7460371432 
726, 33879.1107622929 
727, 33986.2873420537 
728, 34093.6185608336 
729, 34149.0948391298 
730, 34354.1391115738 
731, 34735.5596519742 
732, 35247.1967781715 
733, 35791.2031868759 
734, 36245.3224781318 
735, 36514.9576303017 
736, 36564.842820238 
737, 36519.3135087066 
738, 36454.3008651997 
739, 36383.9038852881 
740, 36278.6610817925 
741, 36241.0441704223 
742, 36287.656797017 
743, 36404.0975803306 
744, 36555.9003800929 
745, 36654.4178021032 
746, 36695.8387207899 
747, 36699.7718550881 
748, 36656.4443618896 
749, 36539.0372594269 
750, 36378.8625685103 
751, 36244.86908733 
752, 36187.1482683127 
753, 36183.59625256 
754, 36193.4220645298 
755, 36163.4010504464 
756, 36002.5121946072 
757, 35268.0373578148 
758, 33214.943471623 
759, 28503.8644403409 
760, 21699.5840784109 
761, 15268.0180786871 
762, 12023.8353561527 
763, 12323.0894960088 
764, 14403.9316517758 
765, 17462.8116446551 
766, 21525.8705753276 
767, 25847.5742595516 
768, 29513.1868988881 
769, 31998.6119385717 
770, 33362.3697289048 
771, 34026.7250173643 
772, 34287.258604993 
773, 34357.8220905026 
774, 34346.3146885152 
775, 34275.1578315714 
776, 34182.9411491441 
777, 34095.900246185 
778, 33970.0683866373 
779, 33816.1472686799 
780, 33663.0991456237 
781, 33544.9723952347 
782, 33412.8954974063 
783, 33248.2182944253 
784, 33057.7333898069 
785, 32878.0940800813 
786, 32702.5191647178 
787, 32493.7033483625 
788, 32223.05871042 
789, 31906.9272830192 
790, 31568.5133798636 
791, 31213.1358599541 
792, 30844.4733196374 
793, 30490.9257100205 
794, 30210.3624536878 
795, 30035.0647702808 
796, 29962.0120631289 
797, 29907.9025601941 
798, 29793.6041514468 
799, 29586.4243877561 
800, 29312.7834755145 
801, 29020.0273767484 
802, 28749.1839535518 
803, 28513.7354224962 
804, 28274.6014798922 
805, 28066.2307531139 
806, 27872.4612899579 
807, 27657.7753409332 
808, 27387.9609121774 
809, 27068.4719149139 
810, 26721.5204648086 
811, 26364.3646219902 
812, 25940.396650785 
813, 25380.2005580088 
814, 24673.6861301907 
815, 23879.342891928 
816, 23138.2473539099 
817, 22547.5292422717 
818, 22169.2966501707 
819, 22027.3337189804 
820, 21961.3999989832 
821, 21860.5239414858 
822, 21683.0815759057 
823, 21495.20350874 
824, 21373.610512662 
825, 21380.6843485444 
826, 21487.3510453248 
827, 21410.6088250704 
828, 21168.8482477528 
829, 20862.0644961261 
830, 20617.5808037761 
831, 20443.178355315 
832, 20303.7532932782 
833, 20184.8893217197 
834, 20093.7335644213 
835, 20041.0136643994 
836, 20006.6494688135 
837, 19955.6536237224 
838, 19845.38973844 
839, 19691.2743053612 
840, 19511.2299471014 
841, 19317.5274013708 
842, 19110.2738918682 
843, 18898.7117613641 
844, 18691.1702003059 
845, 18490.8860125335 
846, 18295.9672893467 
847, 18051.6725597729 
848, 17757.783272161 
849, 17435.6317366346 
850, 17105.7432272314 
851, 16723.2281312485 
852, 16333.8798575499 
853, 16015.8533557314 
854, 15776.4893194141 
855, 15585.5903974017 
856, 15506.1503643263 
857, 15621.3961774403 
858, 15777.5545643289 
859, 15814.1358975163 
860, 15705.8374362876 
861, 15544.6789273152 
862, 15344.6917493246 
863, 15087.7793570053 
864, 14779.1290596968 
865, 14456.6060792313 
866, 14154.1188489245 
867, 13904.6301902221 
868, 13749.1562086643 
869, 13735.5533099082 
870, 13777.6704771827 
871, 13770.3599677794 
872, 13664.9105378394 
873, 13515.3864756252 
874, 13353.6608902344 
875, 13192.4284411729 
876, 13034.6581031119 
877, 12879.0432211782 
878, 12725.957141084 
879, 12575.8208815717 
880, 12427.1481593666 
881, 12273.2634121202 
882, 12118.0415483735 
883, 11971.4538265757 
884, 11838.4354993372 
885, 11702.6865463036 
886, 11555.7710830476 
887, 11399.6907944592 
888, 11242.2310096131 
889, 11091.9730783025 
890, 10944.0724005436 
891, 10779.1986089676 
892, 10575.5241350907 
893, 10331.167231972 
894, 10050.235981524 
895, 9738.88587899442 
896, 9406.95478021882 
897, 9070.69101602152 
898, 8755.18112522727 
899, 8491.28751001285 
900, 8304.9929398094 
901, 8191.25997253395 
902, 8131.66377961351 
903, 8101.15028640274 
904, 8072.2077905846 
905, 8025.17215782588 
906, 7940.13296464682 
907, 7801.84920394852 
908, 7609.6232731893 
909, 7410.0127836524 
910, 7241.71653463368 
911, 7117.16727068767 
912, 7025.76172895685 
913, 6950.29141893854 
914, 6877.65467341455 
915, 6803.60979390081 
916, 6732.6048294867 
917, 6678.13639093732 
918, 6632.38106126827 
919, 6588.87018482413 
920, 6543.79410781072 
921, 6495.14877560992 
922, 6432.5085742015 
923, 6345.1918744832 
924, 6225.1565057348 
925, 6074.00354050399 
926, 5895.72070018087 
927, 5682.64863631964 
928, 5422.29883294607 
929, 5120.08926435269 
930, 4780.39417426451 
931, 4419.62038486335 
932, 4064.95372063779 
933, 3751.1690832786 
934, 3502.31539858146 
935, 3331.69516287682 
936, 3240.41305787124 
937, 3215.94530478643 
938, 3231.28827561212 
939, 3262.13556569497 
940, 3290.85083600754 
941, 3314.8532091083 
942, 3317.95297880627 
943, 3286.92410660982 
944, 3220.1537467512 
945, 3140.82020322814 
946, 3076.73442696867 
947, 3037.2776661774 
948, 3018.80825281887 
949, 3010.07259275299 
950, 3002.48228791163 
951, 2991.48215308768 
952, 2976.20797410539 
953, 2959.12187684458 
954, 2941.62593191007 
955, 2925.75296289553 
956, 2913.24211006296 
957, 2904.99375752551 
958, 2898.22440181365 
959, 2894.89337995236 
960, 2895.69659708757 
961, 2897.74158410934 
962, 2898.40971353896 
963, 2901.88944194565 
964, 2908.71842255331 
965, 2913.70283167478 
966, 2915.31048514968 
967, 2911.73104317878 
968, 2902.3428211049 
969, 2887.77520299323 
970, 2869.75668337558 
971, 2845.69968617686 
972, 2812.5583531812 
973, 2769.01609783988 
974, 2719.97772995684 
975, 2669.83371099075 
976, 2621.10394054251 
977, 2575.95754993142 
978, 2539.39637894689 
979, 2509.0958989094 
980, 2483.64955215281 
981, 2460.60831358621 
982, 2434.93976756135 
983, 2407.75358373577 
984, 2379.37939767498 
985, 2348.90375478422 
986, 2313.96492718453 
987, 2276.23132633612 
988, 2237.94723974686 
989, 2198.59240627066 
990, 2155.63710595008 
991, 2115.04909807507 
992, 2074.7980798788 
993, 2033.64488577297 
994, 1991.98697005886 
995, 1951.811165208 
996, 1909.76244230242 
997, 1866.54790977187 
998, 1824.10735660972 
999, 1781.60113419165 
1000, 1739.03644913522 
1001, 10874.3842266071 
1002, 10870.7861288135 
1003, 10870.9667773111 
1004, 10880.3908186852 
1005, 10894.7045317824 
1006, 10924.4845664456 
1007, 10965.2455799458 
1008, 11013.5060093061 
1009, 11069.5326102878 
1010, 11138.5772809948 
1011, 11203.7275673409 
1012, 11275.8544708824 
1013, 11345.9724140028 
1014, 11409.7805561219 
1015, 11474.3880771188 
1016, 11545.5110553827 
1017, 11618.9924938227 
1018, 11694.7871753551 
1019, 11772.6491235527 
1020, 11844.7152709254 
1021, 11918.8809095662 
1022, 11997.4762870236 
1023, 12080.0556174919 
1024, 12160.4555811789 
1025, 12244.3864780458 
1026, 12326.9104399333 
1027, 12403.3690463927 
1028, 12478.5362954182 
1029, 12550.8948427702 
1030, 12621.2123444898 
1031, 12685.0585762928 
1032, 12740.6998627626 
1033, 12789.0774512274 
1034, 12831.0419542657 
1035, 12870.9874008987 
1036, 12904.7580733539 
1037, 12941.3529501755 
1038, 12976.2240905055 
1039, 13006.7806635005 
1040, 13037.9763436248 
1041, 13059.7431747814 
1042, 13076.8355970619 
1043, 13090.7970793312 
1044, 13101.9806058418 
1045, 13112.7450002231 
1046, 13125.5932482738 
1047, 13137.9600979762 
1048, 13150.8859234348 
1049, 13160.5785788735 
1050, 13174.5104963896 
1051, 13188.7045489964 
1052, 13206.2844449419 
1053, 13226.5323922828 
1054, 13238.5637337242 
1055, 13251.5846748433 
1056, 13270.2365505668 
1057, 13296.0401313766 
1058, 13332.7587174111 
1059, 13379.2714953586 
1060, 13429.788887691 
1061, 13482.7457810547 
1062, 13545.0356372706 
1063, 13614.0359406427 
1064, 13690.9005692548 
1065, 13781.9885933269 
1066, 13881.6523081597 
1067, 13984.3056263565 
1068, 14107.2987090716 
1069, 14244.724427056 
1070, 14390.5686169595 
1071, 14559.125211417 
1072, 14733.9268425852 
1073, 14901.886546348 
1074, 15079.2955510932 
1075, 15236.681791272 
1076, 15387.152240787 
1077, 15525.6619611436 
1078, 15653.3311771182 
1079, 15773.1151529906 
1080, 15875.9702263229 
1081, 15972.0605620665 
1082, 16061.7662506706 
1083, 16141.9473401871 
1084, 16224.7412307737 
1085, 16306.0488655395 
1086, 16380.9839824391 
1087, 16453.6913153935 
1088, 16514.4434457692 
1089, 16579.8694086901 
1090, 16616.5050236409 
1091, 16637.0917873145 
1092, 16634.4945636218 
1093, 16615.1964215459 
1094, 16589.0392389324 
1095, 16561.235463436 
1096, 16540.4774915805 
1097, 16521.8230547905 
1098, 16501.5773027436 
1099, 16482.074061902 
1100, 16465.7967500662 
1101, 16442.3510929784 
1102, 16424.2592108023 
1103, 16386.1017439283 
1104, 16348.8918477937 
1105, 16285.4518278312 
1106, 16195.4575986777 
1107, 16072.9087062166 
1108, 15897.6629058107 
1109, 15661.2605673146 
1110, 15334.4472270774 
1111, 14933.9161608282 
1112, 14457.0354295841 
1113, 13865.9962672693 
1114, 13280.3930543769 
1115, 12591.8588234505 
1116, 11979.1949087453 
1117, 11322.1280586766 
1118, 10757.931699448 
1119, 10237.5547855923 
1120, 9763.84986950066 
1121, 9365.67269205502 
1122, 9046.2531198781 
1123, 8827.03300146646 
1124, 8684.93961610826 
1125, 8627.3841542693 
1126, 8693.5372705861 
1127, 8752.26301042231 
1128, 8889.02325939183 
1129, 9018.29127389236 
1130, 9179.07689741262 
1131, 9340.69335870815 
1132, 9500.85028697721 
1133, 9702.84906326156 
1134, 9917.21114460074 
1135, 10158.8587023135 
1136, 10493.6486448079 
1137, 10841.072032168 
1138, 11181.9746492982 
1139, 11494.337158315 
1140, 11707.6812835012 
1141, 11863.84019461 
1142, 11942.5709902224 
1143, 11902.3631608287 
1144, 11897.7721569305 
1145, 11754.7407528188 
1146, 11775.7590915563 
1147, 11816.7910987435 
1148, 11967.2685359059 
1149, 12226.6875407739 
1150, 12546.3439226091 
1151, 12960.7939565222 
1152, 13416.6579555614 
1153, 13894.9689724652 
1154, 14450.6281737605 
1155, 14975.6135179785 
1156, 15528.9267511987 
1157, 16048.7797158599 
1158, 16575.6211341672 
1159, 17069.0821237989 
1160, 17546.7240749204 
1161, 17993.3883646625 
1162, 18428.8760355113 
1163, 18822.4239532753 
1164, 19182.7788077621 
1165, 19506.905651346 
1166, 19803.2912252544 
1167, 20061.8920732935 
1168, 20287.2793001381 
1169, 20478.7626932191 
1170, 20640.5733683657 
1171, 20765.8696135065 
1172, 20866.0910697141 
1173, 20930.0042108094 
1174, 20980.458922872 
1175, 20995.433770502 
1176, 21008.297925965 
1177, 20997.8556779087 
