Wavelength,0212202100111.asd
350, 2551.5018142973 
351, 2684.86727854631 
352, 2807.50195996703 
353, 2907.01839551451 
354, 3007.56976864059 
355, 3113.07050901049 
356, 3221.73488222279 
357, 3332.53452675787 
358, 3447.15350767102 
359, 3568.41774601769 
360, 3702.04600621869 
361, 3864.8100223754 
362, 4052.56120184508 
363, 4256.64677869101 
364, 4466.04852593482 
365, 4677.41764654645 
366, 4878.03234702892 
367, 5053.26996661878 
368, 5188.74669403521 
369, 5269.96418099782 
370, 5299.25166198923 
371, 5290.57960672547 
372, 5267.21854525381 
373, 5255.82761205463 
374, 5262.57910163071 
375, 5277.4052599571 
376, 5288.71741607521 
377, 5295.64994756171 
378, 5286.8313844318 
379, 5235.7900612922 
380, 5172.4796630626 
381, 5102.24383286728 
382, 5022.7248890971 
383, 4926.2428265643 
384, 4825.94083035354 
385, 4754.66114824868 
386, 4752.95567903149 
387, 4848.40228532915 
388, 4989.25350025858 
389, 5114.52852054086 
390, 5168.5655670067 
391, 5225.90993448455 
392, 5283.45930974189 
393, 5330.79643020154 
394, 5366.87955382252 
395, 5474.60186389828 
396, 5690.73007804775 
397, 6028.94506765867 
398, 6505.0409253573 
399, 7049.30444167593 
400, 7608.08028374198 
401, 8148.56244102455 
402, 8665.82815085378 
403, 9093.53296677272 
404, 9401.37347443291 
405, 9637.96361733238 
406, 9825.17543057688 
407, 9992.08234224994 
408, 10173.6904252438 
409, 10423.055434765 
410, 10724.7277795583 
411, 11058.8498972083 
412, 11404.0420387745 
413, 11746.8389154203 
414, 12086.3135141356 
415, 12413.5404431685 
416, 12700.8745183518 
417, 12972.1364894218 
418, 13250.088762843 
419, 13541.8330579399 
420, 13794.1967823037 
421, 14049.1181190251 
422, 14327.2735506023 
423, 14626.0243094351 
424, 14903.4052914832 
425, 15122.7286906675 
426, 15251.9761995964 
427, 15261.1651116275 
428, 15200.9284036207 
429, 15208.1896804296 
430, 15393.5736808837 
431, 15663.3094462333 
432, 16022.3413302877 
433, 16553.3317221942 
434, 17359.9967360586 
435, 18219.3517208043 
436, 18878.4140086542 
437, 19283.4322520102 
438, 19708.94478884 
439, 20146.3544953825 
440, 20558.448690401 
441, 20930.0216938197 
442, 21413.1793877724 
443, 21924.3240437395 
444, 22394.1126112883 
445, 22775.9031545028 
446, 23081.9066091153 
447, 23356.3228483402 
448, 23647.5760101336 
449, 24009.8509008096 
450, 24318.4901542911 
451, 24485.250879298 
452, 24475.0525145624 
453, 24410.520758292 
454, 24271.4679691797 
455, 24094.7317173378 
456, 23969.2248620334 
457, 23939.0752708106 
458, 23945.8055668152 
459, 23928.4778128759 
460, 23865.3912620989 
461, 23767.6576110264 
462, 23661.2080962542 
463, 23562.1777597195 
464, 23405.5945206297 
465, 23163.147103282 
466, 22864.4077341569 
467, 22593.3105165911 
468, 22360.7402788433 
469, 22184.3310260586 
470, 22074.6800116157 
471, 22036.4530665337 
472, 22010.9516784027 
473, 22003.0168539752 
474, 22035.1348933512 
475, 22026.1696078959 
476, 22000.4534768336 
477, 21984.9315992672 
478, 21996.8738778943 
479, 22066.3235499786 
480, 22164.5058394461 
481, 22237.2662242036 
482, 22220.4372050041 
483, 22057.6346164004 
484, 21713.5238727291 
485, 21196.3867601486 
486, 20688.0731047766 
487, 20325.7317838986 
488, 20217.8779996987 
489, 20452.0433559351 
490, 20829.5107630098 
491, 21141.2502624349 
492, 21250.9226560631 
493, 21293.4208401485 
494, 21352.83590111 
495, 21470.7036176493 
496, 21637.7879475627 
497, 21690.0264153587 
498, 21629.931309725 
499, 21494.4703350658 
500, 21313.4055083747 
501, 21173.0904976735 
502, 21114.2456900622 
503, 21157.8721509659 
504, 21350.6479989512 
505, 21624.1322315273 
506, 21905.2609777883 
507, 22128.3294349168 
508, 22299.3934181654 
509, 22432.2977116365 
510, 22553.7323692199 
511, 22722.9666347702 
512, 22840.9127525067 
513, 22863.742750509 
514, 22782.7952966327 
515, 22598.7163815388 
516, 22346.5362412332 
517, 22096.0832728786 
518, 21952.3152286009 
519, 22135.7198054952 
520, 22667.3663831177 
521, 23421.1944244419 
522, 24053.2464891974 
523, 24524.611325618 
524, 24855.3663247842 
525, 25104.8469310147 
526, 25212.8226124463 
527, 25253.4354334867 
528, 25380.9000140804 
529, 25887.9855731113 
530, 26551.1856575007 
531, 27112.3906906736 
532, 27359.9788832959 
533, 27442.4732433196 
534, 27565.2461270358 
535, 27839.1436646412 
536, 28256.5348257611 
537, 28561.0876740795 
538, 28702.7450675975 
539, 28718.1687015357 
540, 28708.9711506162 
541, 28734.1070369814 
542, 28878.5792741438 
543, 29210.2709329524 
544, 29594.5030429806 
545, 29933.218462075 
546, 30171.2960210491 
547, 30307.6945283481 
548, 30396.6061227581 
549, 30500.3969433719 
550, 30658.4148879019 
551, 30821.0736352992 
552, 30947.2313635454 
553, 31039.9828271904 
554, 31136.4374504835 
555, 31210.2534436456 
556, 31184.5331181526 
557, 31015.6702766399 
558, 30729.6903675647 
559, 30485.3754307436 
560, 30374.7231083968 
561, 30429.248492129 
562, 30566.1587693272 
563, 30646.4678285647 
564, 30601.8811556474 
565, 30454.0830276162 
566, 30243.8680012241 
567, 30028.929286103 
568, 29844.5820914256 
569, 29656.343291052 
570, 29412.843362342 
571, 29181.7632879334 
572, 29094.3513179599 
573, 29119.5627809613 
574, 29112.5678128383 
575, 28980.8921230566 
576, 28737.7855489173 
577, 28513.4747711274 
578, 28394.6675969485 
579, 28428.6939002572 
580, 28579.4839059003 
581, 28842.9425704322 
582, 29164.0630471816 
583, 29441.0363094868 
584, 29614.9724239174 
585, 29616.3675715839 
586, 29437.8895214871 
587, 29205.7726897869 
588, 28914.6526648865 
589, 28521.6169555086 
590, 28030.1141950947 
591, 27851.2959478744 
592, 27982.4718783361 
593, 28230.2411509897 
594, 28220.7232273338 
595, 28079.7877157098 
596, 27881.0563123633 
597, 27674.8527646611 
598, 27448.3934398229 
599, 27169.9681221599 
600, 26863.3005122843 
601, 26591.2288246653 
602, 26382.6935464262 
603, 26270.523897623 
604, 26252.6820090586 
605, 26279.6292804029 
606, 26223.283448845 
607, 26077.9531794936 
608, 25891.8153867993 
609, 25705.4832534105 
610, 25530.2418351635 
611, 25373.8649346718 
612, 25240.1652812528 
613, 25100.4499029366 
614, 24937.4639324735 
615, 24759.0207179676 
616, 24620.413047006 
617, 24533.75274873 
618, 24534.1036727268 
619, 24641.6789487398 
620, 24753.8729123966 
621, 24768.1707986737 
622, 24649.110863799 
623, 24443.2633144635 
624, 24211.1148789544 
625, 23991.4770598379 
626, 23802.420317641 
627, 23629.1994182088 
628, 23457.7139529837 
629, 23296.4651301182 
630, 23176.8968545324 
631, 23188.3041736102 
632, 23275.0431558722 
633, 23383.1888299335 
634, 23497.9092154022 
635, 23584.9591287042 
636, 23645.6381336836 
637, 23689.8862859989 
638, 23707.8158019513 
639, 23673.9264816403 
640, 23571.7639835735 
641, 23402.009940867 
642, 23267.6315402152 
643, 23186.9600605743 
644, 23135.904888363 
645, 23042.8104840444 
646, 22893.5841737461 
647, 22706.1678330418 
648, 22517.8860549993 
649, 22363.0483405327 
650, 22244.3440695862 
651, 22183.6808925304 
652, 22215.4715610349 
653, 22167.7338276803 
654, 21925.1327278233 
655, 21468.0868401962 
656, 20930.6414315059 
657, 20540.0272724215 
658, 20540.9992663654 
659, 21061.0761806193 
660, 21600.1569232338 
661, 21912.9823626629 
662, 21978.4817345887 
663, 22010.2233091739 
664, 21989.6299823843 
665, 21955.2077031689 
666, 21940.4834333726 
667, 21946.7506442946 
668, 21940.4728034879 
669, 21921.5507516197 
670, 21904.8732276675 
671, 21861.1642984831 
672, 21808.596156008 
673, 21774.2617919148 
674, 21789.5694090825 
675, 21819.6312958707 
676, 21842.2315811666 
677, 21848.6194167081 
678, 21861.8430058392 
679, 21868.6040296016 
680, 21866.5340471374 
681, 21858.9396711963 
682, 21844.5556140004 
683, 21796.5308575431 
684, 21619.2073896703 
685, 21128.5880168339 
686, 20253.164675026 
687, 19074.4428748976 
688, 17881.3055032718 
689, 17377.0426166773 
690, 17738.6373427606 
691, 18638.8586992147 
692, 19450.8169140806 
693, 20160.5159807702 
694, 20676.2721979973 
695, 20991.4584894244 
696, 21213.3591099783 
697, 21406.6930816523 
698, 21539.7708934438 
699, 21569.9051227081 
700, 21523.7099697149 
701, 21479.1134163053 
702, 21489.1995259397 
703, 21583.649899171 
704, 21771.13176366 
705, 21989.2294445322 
706, 22177.183685038 
707, 22291.0246485832 
708, 22384.3188164501 
709, 22468.661898743 
710, 22545.0561878967 
711, 22620.725575823 
712, 22673.7498133903 
713, 22695.063692458 
714, 22675.2703700044 
715, 22563.5602261538 
716, 22264.4024014994 
717, 21734.4523908226 
718, 21004.058625983 
719, 20394.7676378452 
720, 20173.6053103944 
721, 20443.9987587865 
722, 21005.5854521694 
723, 21401.2615514915 
724, 21469.8853504441 
725, 21291.332558676 
726, 21254.3247962005 
727, 21325.3119570297 
728, 21430.1839025242 
729, 21501.1108417162 
730, 21659.7338761771 
731, 21935.8777762227 
732, 22312.2015134854 
733, 22726.4919232067 
734, 23088.6456271006 
735, 23327.2545688005 
736, 23409.7919179635 
737, 23405.8968529384 
738, 23387.4415582949 
739, 23372.6836237633 
740, 23337.1144419125 
741, 23335.9398594366 
742, 23380.2496922818 
743, 23465.430010891 
744, 23577.3218706816 
745, 23657.939503747 
746, 23699.5847226766 
747, 23711.456375645 
748, 23695.7476513602 
749, 23634.1923969624 
750, 23543.0015945299 
751, 23462.0339604349 
752, 23428.6315189216 
753, 23429.3379248716 
754, 23440.2153107444 
755, 23431.2649187747 
756, 23332.0084961475 
757, 22861.2132407978 
758, 21564.9653775585 
759, 18664.4646463025 
760, 14377.100758791 
761, 10158.7048107662 
762, 7778.0913604436 
763, 7756.1769186227 
764, 9001.55350598354 
765, 10954.745895313 
766, 13543.4424040031 
767, 16371.5255982321 
768, 18835.1123718767 
769, 20558.7039539741 
770, 21530.5821957931 
771, 22015.5258664318 
772, 22211.7906811833 
773, 22270.069364581 
774, 22267.8725996605 
775, 22222.3640850403 
776, 22160.383300738 
777, 22100.0825166761 
778, 22014.4665150861 
779, 21911.9610018652 
780, 21809.5303988422 
781, 21725.5123689697 
782, 21635.162191178 
783, 21525.8462982208 
784, 21398.661651676 
785, 21271.9333926848 
786, 21142.7790821888 
787, 20993.2513582268 
788, 20807.5153333935 
789, 20585.1994663055 
790, 20348.5261766606 
791, 20109.4442525295 
792, 19875.1608274924 
793, 19650.1704879086 
794, 19467.9825602205 
795, 19346.99418811 
796, 19285.3368748893 
797, 19240.8539139839 
798, 19167.973234884 
799, 19041.2122287088 
800, 18862.5492375543 
801, 18666.2987302069 
802, 18485.2125280353 
803, 18332.8700901713 
804, 18184.2189022515 
805, 18057.107252421 
806, 17940.0227356562 
807, 17808.9847957141 
808, 17636.9043165204 
809, 17426.4864600606 
810, 17190.3010084674 
811, 16937.584375016 
812, 16631.7048746138 
813, 16229.9540758579 
814, 15727.2037607136 
815, 15163.0708451012 
816, 14644.7251291603 
817, 14238.8335431357 
818, 13989.3229845285 
819, 13917.9783980848 
820, 13907.8299143481 
821, 13867.7240979459 
822, 13759.5984895397 
823, 13635.186506436 
824, 13550.7339435437 
825, 13563.7255525705 
826, 13664.4347653536 
827, 13643.4130903932 
828, 13497.3374627252 
829, 13295.1691351509 
830, 13135.1444563188 
831, 13034.0159183018 
832, 12962.0432411485 
833, 12904.5887132242 
834, 12864.0192685654 
835, 12847.9934861949 
836, 12843.0596532816 
837, 12825.5746536523 
838, 12766.6165509079 
839, 12677.9102407976 
840, 12568.6440981556 
841, 12446.2964996453 
842, 12314.7876581705 
843, 12181.325865192 
844, 12049.5431602136 
845, 11920.4041789549 
846, 11795.01318245 
847, 11640.9477217308 
848, 11452.0813619919 
849, 11237.9578620975 
850, 11024.4762167282 
851, 10776.9659944775 
852, 10520.240968449 
853, 10303.6580705923 
854, 10144.6221832466 
855, 10015.0468707299 
856, 9952.68388082798 
857, 10014.9156544984 
858, 10117.6482103348 
859, 10144.5057554852 
860, 10072.9610527916 
861, 9964.98075896208 
862, 9835.64802950562 
863, 9668.10754235882 
864, 9464.18756797563 
865, 9252.2572839645 
866, 9052.16100215185 
867, 8882.0445150694 
868, 8769.31249940585 
869, 8751.42342434218 
870, 8773.155069477 
871, 8765.82995528231 
872, 8696.05309281948 
873, 8595.81576509822 
874, 8485.42906704565 
875, 8374.0837453737 
876, 8265.38974018975 
877, 8160.67275277049 
878, 8058.54423733993 
879, 7956.10202984733 
880, 7851.7456570503 
881, 7748.54245462709 
882, 7645.56381634 
883, 7547.12178694234 
884, 7456.05742560193 
885, 7366.09596926808 
886, 7267.41430287293 
887, 7162.14832840296 
888, 7057.64010059535 
889, 6958.59103895825 
890, 6859.0532158049 
891, 6747.12941644593 
892, 6609.81514691853 
893, 6441.24437855793 
894, 6247.48081893515 
895, 6032.81322990067 
896, 5803.04406700131 
897, 5573.28168448545 
898, 5355.84347074986 
899, 5173.92561916028 
900, 5050.71175817777 
901, 4980.99579531964 
902, 4950.79645470755 
903, 4940.6935336238 
904, 4929.52339303192 
905, 4903.79195027081 
906, 4851.18468105841 
907, 4762.24380750217 
908, 4636.42258117099 
909, 4501.86405905037 
910, 4387.39485798331 
911, 4304.06118378095 
912, 4246.11393103617 
913, 4199.30914471236 
914, 4153.96270143997 
915, 4108.15427809768 
916, 4066.81062624266 
917, 4039.03066495338 
918, 4020.44560723734 
919, 4003.83064453686 
920, 3982.52925572404 
921, 3960.46300516923 
922, 3929.64404450061 
923, 3879.8380544978 
924, 3802.92423633 
925, 3705.18293194598 
926, 3588.45307758448 
927, 3447.11215460554 
928, 3273.16126969589 
929, 3072.38521208654 
930, 2844.79838126432 
931, 2602.64674074227 
932, 2367.13067487843 
933, 2158.18800774296 
934, 1992.76613362441 
935, 1881.57632651796 
936, 1826.11574612233 
937, 1812.34058660105 
938, 1826.79809429971 
939, 1852.49433845906 
940, 1874.71260532529 
941, 1892.70252241534 
942, 1898.24928582216 
943, 1883.07803468452 
944, 1844.80114628506 
945, 1795.56597144151 
946, 1753.45584951065 
947, 1727.37075528402 
948, 1717.51149680099 
949, 1715.15376036737 
950, 1713.2862235516 
951, 1708.63468970232 
952, 1700.78665843496 
953, 1691.3277975423 
954, 1683.53797482037 
955, 1676.75553286341 
956, 1670.36154420634 
957, 1666.19969644687 
958, 1664.60294074023 
959, 1664.47674608417 
960, 1665.68233264103 
961, 1669.83275432222 
962, 1673.04717876071 
963, 1677.71012483404 
964, 1684.597079967 
965, 1691.17087147874 
966, 1696.46447500127 
967, 1697.72244660064 
968, 1694.18667155748 
969, 1687.19140137254 
970, 1677.98244149057 
971, 1663.67687426844 
972, 1642.81136700919 
973, 1615.77179504514 
974, 1584.25726278882 
975, 1551.27780366589 
976, 1518.53572691823 
977, 1487.71407089935 
978, 1463.19883717054 
979, 1442.85073670177 
980, 1425.98418160872 
981, 1411.34033164563 
982, 1395.48356698648 
983, 1379.44858547194 
984, 1361.45490804157 
985, 1340.78925372463 
986, 1319.24945612725 
987, 1294.26742915889 
988, 1268.96624223482 
989, 1244.41483448812 
990, 1218.52064973108 
991, 1191.40543441184 
992, 1164.6024540483 
993, 1138.72694928947 
994, 1113.20920350536 
995, 1086.16272615836 
996, 1059.239653504 
997, 1033.22310435763 
998, 1007.55770753036 
999, 979.406100764443 
1000, 952.598145814269 
1001, 6058.62641819653 
1002, 6038.0343846958 
1003, 6018.77075516768 
1004, 6009.88377595361 
1005, 5999.25800647519 
1006, 5998.53062946374 
1007, 6010.26931095215 
1008, 6022.41992995835 
1009, 6037.71360277125 
1010, 6061.75832902116 
1011, 6080.47839884813 
1012, 6097.12441915644 
1013, 6119.3373857204 
1014, 6139.23906206151 
1015, 6158.3714710423 
1016, 6188.34951085532 
1017, 6217.61698851527 
1018, 6245.3581392291 
1019, 6277.90418965312 
1020, 6305.68642647509 
1021, 6331.01697821575 
1022, 6363.24514747484 
1023, 6399.21404974434 
1024, 6435.06464927244 
1025, 6474.60045576073 
1026, 6523.79614480158 
1027, 6565.69622063031 
1028, 6599.42990308986 
1029, 6635.03988714693 
1030, 6663.55006398434 
1031, 6685.82873135858 
1032, 6712.41381624495 
1033, 6739.40730538196 
1034, 6762.65245990464 
1035, 6787.78235135726 
1036, 6813.56994922873 
1037, 6841.06986191488 
1038, 6866.23576208798 
1039, 6891.31137633775 
1040, 6913.74279136127 
1041, 6936.47289991799 
1042, 6959.51959261621 
1043, 6977.17772952156 
1044, 7002.92917859074 
1045, 7026.54649521796 
1046, 7038.79225137122 
1047, 7056.99303995465 
1048, 7077.29479500058 
1049, 7095.9022064072 
1050, 7118.52626921304 
1051, 7149.31162198735 
1052, 7175.2448877648 
1053, 7198.45325231331 
1054, 7216.64594084596 
1055, 7233.84521808087 
1056, 7262.29104682002 
1057, 7294.43222604525 
1058, 7330.7469376699 
1059, 7376.75883603946 
1060, 7423.88821588102 
1061, 7472.90941555845 
1062, 7526.87590502742 
1063, 7585.47575638765 
1064, 7646.77114029988 
1065, 7710.20519522913 
1066, 7783.55316617833 
1067, 7856.72868965482 
1068, 7935.11845653272 
1069, 8027.07761654591 
1070, 8125.13608697252 
1071, 8233.84008027072 
1072, 8343.825775568 
1073, 8449.82827428012 
1074, 8558.26836560461 
1075, 8659.32579281052 
1076, 8755.74485030211 
1077, 8851.71630240071 
1078, 8940.88726188236 
1079, 9021.65505255846 
1080, 9087.05162471093 
1081, 9145.14611064099 
1082, 9201.42863350077 
1083, 9253.21409826291 
1084, 9303.34650190189 
1085, 9350.86872285704 
1086, 9392.51052720271 
1087, 9428.03768093612 
1088, 9456.92072155793 
1089, 9487.47498649168 
1090, 9501.82907964796 
1091, 9505.32748888884 
1092, 9496.75451560058 
1093, 9480.58529617859 
1094, 9457.26624865655 
1095, 9427.76588651584 
1096, 9401.19694824149 
1097, 9371.14818967785 
1098, 9333.19487623768 
1099, 9296.22642652909 
1100, 9253.43031271745 
1101, 9216.06780703216 
1102, 9183.76834457987 
1103, 9144.81225990793 
1104, 9112.10113677959 
1105, 9068.66175603586 
1106, 9011.72721233801 
1107, 8924.40792738763 
1108, 8797.92583885719 
1109, 8638.14474945551 
1110, 8417.02037416023 
1111, 8152.42011694949 
1112, 7849.70596018971 
1113, 7483.74659767335 
1114, 7122.04129277084 
1115, 6706.65760230291 
1116, 6330.01345083673 
1117, 5921.8103945585 
1118, 5577.77087009127 
1119, 5262.16929238075 
1120, 4974.17024015837 
1121, 4736.81231281041 
1122, 4548.93212878091 
1123, 4410.90603629651 
1124, 4313.36469741186 
1125, 4266.48805259264 
1126, 4288.97330550762 
1127, 4309.69205194376 
1128, 4374.98158217206 
1129, 4441.25617166275 
1130, 4529.03503220601 
1131, 4617.7594792522 
1132, 4715.49861241622 
1133, 4825.29275047409 
1134, 4937.17810817584 
1135, 5062.10548010316 
1136, 5240.06472582382 
1137, 5422.18247206683 
1138, 5606.80439218486 
1139, 5783.41028582399 
1140, 5895.04256122157 
1141, 5971.80339181404 
1142, 6003.99500555914 
1143, 5967.55494871247 
1144, 5945.30559754726 
1145, 5841.93534158867 
1146, 5829.17286365024 
1147, 5816.03979545553 
1148, 5874.29150616578 
1149, 5998.1766870571 
1150, 6157.5634565861 
1151, 6369.94459854338 
1152, 6607.77415516811 
1153, 6855.35665939605 
1154, 7144.14855363518 
1155, 7416.07992405722 
1156, 7706.27476951323 
1157, 7971.57364054666 
1158, 8240.53145461184 
1159, 8481.993571326 
1160, 8705.21915467177 
1161, 8914.06704447444 
1162, 9111.35567379651 
1163, 9287.40162308257 
1164, 9447.16382737128 
1165, 9587.4518610516 
1166, 9703.42673372273 
1167, 9792.74267993682 
1168, 9860.27793722461 
1169, 9900.25686663667 
1170, 9926.13322840732 
1171, 9929.13021569728 
1172, 9919.45025911892 
1173, 9886.28672084685 
1174, 9851.7878140119 
1175, 9803.30974215176 
1176, 9748.77210093345 
1177, 9680.6458052032 
1178, 9616.99728166769 
