Wavelength,0212202100089.asd
350, 112.64950822434 
351, 117.574227893651 
352, 123.118461635965 
353, 126.657190390143 
354, 130.376141031768 
355, 135.129583874244 
356, 140.633228889258 
357, 144.270130355432 
358, 148.605906637078 
359, 153.74300398247 
360, 158.79035382187 
361, 164.444950031137 
362, 172.313164320136 
363, 181.650107516555 
364, 189.581264736877 
365, 197.54471266588 
366, 205.839480850293 
367, 213.565471946173 
368, 217.828958603232 
369, 221.318473945404 
370, 223.276630690571 
371, 222.572836311211 
372, 220.485775760924 
373, 221.337083104169 
374, 223.596302713991 
375, 222.426427670238 
376, 220.955766982407 
377, 221.117309808191 
378, 221.971920306742 
379, 219.033167529831 
380, 215.951097777308 
381, 212.410957873216 
382, 208.035445939451 
383, 205.113496358025 
384, 201.0413167116 
385, 197.408327164285 
386, 197.510056913959 
387, 201.719167448658 
388, 207.657589343974 
389, 212.523994272926 
390, 213.760886217304 
391, 216.089348968114 
392, 218.714210584894 
393, 220.461629173868 
394, 221.330393541074 
395, 226.569403909171 
396, 235.204562142631 
397, 245.625524132426 
398, 266.654391080899 
399, 288.681554854422 
400, 309.311542790366 
401, 332.676346672685 
402, 352.450450476165 
403, 368.003634198722 
404, 380.114911841803 
405, 390.231806587401 
406, 397.356068584707 
407, 403.522259822562 
408, 411.156922614621 
409, 419.533428273433 
410, 431.024957858382 
411, 444.510666124343 
412, 456.584922973527 
413, 470.792622544129 
414, 484.701911422148 
415, 496.737448786221 
416, 508.236101203554 
417, 518.347879876743 
418, 528.629018336945 
419, 540.117487558437 
420, 548.596808399467 
421, 559.060430337838 
422, 571.260230589252 
423, 581.340690123258 
424, 591.903804854329 
425, 600.384723825132 
426, 604.603112774545 
427, 603.9333357983 
428, 602.619290575739 
429, 603.305507159491 
430, 608.161257802972 
431, 620.118560193211 
432, 634.188821037087 
433, 653.722542775977 
434, 686.336739420121 
435, 718.065044910319 
436, 742.500105255026 
437, 759.257105665336 
438, 775.699210245437 
439, 792.682757442529 
440, 808.413623507826 
441, 821.967519508256 
442, 840.793716577245 
443, 860.046822795614 
444, 877.0611115285 
445, 891.326573052226 
446, 903.146530314381 
447, 913.829739486057 
448, 924.899596565209 
449, 938.342325684266 
450, 948.625265211555 
451, 953.732349208199 
452, 953.710665724766 
453, 951.206245274401 
454, 945.662910933125 
455, 938.332205782571 
456, 932.300921023694 
457, 933.04957940364 
458, 933.498717384023 
459, 929.29678870319 
460, 926.915736734084 
461, 923.893492314247 
462, 920.28045713595 
463, 916.298349966178 
464, 908.747288433948 
465, 898.798135583553 
466, 887.901778057465 
467, 877.431528656579 
468, 866.795219909513 
469, 858.951265026735 
470, 855.748277642213 
471, 855.011954809298 
472, 853.684672549428 
473, 852.285801848148 
474, 852.685238222871 
475, 852.372036008891 
476, 852.355261212581 
477, 852.767117752889 
478, 852.313784354861 
479, 853.725758715412 
480, 856.558340625704 
481, 858.905921151214 
482, 857.609856463092 
483, 851.419428420124 
484, 838.800929485969 
485, 819.18680853084 
486, 798.658944736863 
487, 785.072939162762 
488, 782.926388839452 
489, 791.747163319364 
490, 804.423405283333 
491, 814.802044586229 
492, 819.253021258592 
493, 821.328494752061 
494, 823.659264035684 
495, 827.849389428935 
496, 833.979781847144 
497, 834.730995194478 
498, 832.242962463438 
499, 828.309315335172 
500, 819.647206349242 
501, 814.22742108248 
502, 813.259581491276 
503, 815.318327743113 
504, 821.095606246542 
505, 830.117621579355 
506, 840.980360538903 
507, 851.336269181704 
508, 856.570681039537 
509, 860.48735817502 
510, 866.488945716299 
511, 871.197465250784 
512, 874.707083838281 
513, 875.558685906406 
514, 872.029189506232 
515, 866.65313576695 
516, 858.462814662424 
517, 848.744756718405 
518, 842.176677984014 
519, 849.000475061207 
520, 869.850129553508 
521, 898.915753134857 
522, 921.57885205282 
523, 937.957384136563 
524, 950.059492677981 
525, 960.744826415052 
526, 964.773682676493 
527, 966.331075117454 
528, 971.763612459085 
529, 989.150938994507 
530, 1013.13286687398 
531, 1034.69960702466 
532, 1045.22106639803 
533, 1047.46688270603 
534, 1051.71887315914 
535, 1062.32845394117 
536, 1076.37644912051 
537, 1089.40423035945 
538, 1096.66174430641 
539, 1096.62578755032 
540, 1095.39059460968 
541, 1096.58487048478 
542, 1102.65049967557 
543, 1114.35293075525 
544, 1128.05105572395 
545, 1140.06201150096 
546, 1148.54644185748 
547, 1154.29942136417 
548, 1158.89319093127 
549, 1162.77063442905 
550, 1166.47981454617 
551, 1172.92691135117 
552, 1178.62581952263 
553, 1182.56657497647 
554, 1185.91577618622 
555, 1187.88478476766 
556, 1185.9862241713 
557, 1179.39417560614 
558, 1171.27436028236 
559, 1161.81542537279 
560, 1155.60958115073 
561, 1157.49676935087 
562, 1163.30671843832 
563, 1167.3670589421 
564, 1166.43129422432 
565, 1160.38661115084 
566, 1150.96842366221 
567, 1142.38539761693 
568, 1136.9777442106 
569, 1129.80307697295 
570, 1120.82275154285 
571, 1112.11308353829 
572, 1107.12569680777 
573, 1108.44411100156 
574, 1108.73258748279 
575, 1103.265855319 
576, 1093.62399603724 
577, 1085.25188935074 
578, 1081.32533761278 
579, 1083.15362596 
580, 1088.46993451884 
581, 1098.17515337539 
582, 1110.56989420996 
583, 1121.38791683061 
584, 1126.27968859414 
585, 1125.45204246703 
586, 1120.18534116457 
587, 1111.18168816555 
588, 1101.30474617518 
589, 1087.9108110135 
590, 1068.8451029286 
591, 1062.23174605835 
592, 1067.51862336105 
593, 1076.95978488963 
594, 1076.35578014618 
595, 1069.32001106105 
596, 1061.017079317 
597, 1054.82970036172 
598, 1045.33574312533 
599, 1035.02573471264 
600, 1024.88902748185 
601, 1015.03277510253 
602, 1007.22269736804 
603, 1002.86576646208 
604, 1001.91735566571 
605, 1002.29298665341 
606, 1000.52012315078 
607, 995.30056658165 
608, 987.100603122269 
609, 978.90959279228 
610, 973.692039915507 
611, 970.276975935152 
612, 963.882148050546 
613, 957.493531482965 
614, 950.317672727713 
615, 942.674067679725 
616, 939.388446202443 
617, 936.766554514739 
618, 936.341152974431 
619, 940.751370177144 
620, 944.197657753991 
621, 944.775737958819 
622, 941.285991656792 
623, 932.984774098756 
624, 923.578994057283 
625, 915.289572417916 
626, 908.792370130365 
627, 901.548771323062 
628, 894.356356527599 
629, 888.275171473135 
630, 884.531089035962 
631, 883.723266481703 
632, 886.70279878731 
633, 892.354696855526 
634, 896.499235369366 
635, 899.400040664579 
636, 901.878043812322 
637, 904.626655958782 
638, 906.747332279116 
639, 905.364610089611 
640, 900.061704165632 
641, 892.875877720121 
642, 888.741679228421 
643, 886.204809505167 
644, 883.286451532887 
645, 879.629825156459 
646, 874.333003835567 
647, 868.070701360381 
648, 862.169354175653 
649, 857.384469177915 
650, 852.422142908765 
651, 848.948336926753 
652, 851.200813296329 
653, 849.621011447474 
654, 839.279213528526 
655, 820.477821909124 
656, 802.368587776235 
657, 788.373991466624 
658, 788.149249274343 
659, 808.794428304016 
660, 827.408802201597 
661, 837.626778405951 
662, 840.157854020765 
663, 842.180320479316 
664, 842.800750515354 
665, 842.241797728279 
666, 840.968184777249 
667, 839.76724033549 
668, 840.033511296881 
669, 840.640751908688 
670, 839.395479607599 
671, 837.835148530792 
672, 836.398695373665 
673, 835.543022636292 
674, 835.862980239291 
675, 837.444248848396 
676, 838.558426343027 
677, 838.043614858244 
678, 838.210008056418 
679, 837.910260511388 
680, 837.414535797098 
681, 837.720764222647 
682, 838.784646085492 
683, 836.953083511231 
684, 828.373885709451 
685, 809.751120662647 
686, 776.69994675552 
687, 731.652327958547 
688, 685.5380595378 
689, 666.18295115514 
690, 681.263658141244 
691, 717.232402476248 
692, 748.133702689489 
693, 775.010406556669 
694, 794.954737666604 
695, 807.705181182141 
696, 816.669398188227 
697, 823.046477797189 
698, 827.056816392135 
699, 828.673333673742 
700, 828.471926991595 
701, 826.417434224796 
702, 826.020175362839 
703, 831.934009697914 
704, 838.940078952304 
705, 846.353742658008 
706, 853.324738082468 
707, 858.045743816292 
708, 862.305055177948 
709, 866.467210630001 
710, 870.194380141622 
711, 872.2151315688 
712, 873.134123904886 
713, 873.621194874775 
714, 873.864079021647 
715, 871.463924161003 
716, 860.321064797309 
717, 839.053452170816 
718, 812.728913681051 
719, 790.608054526238 
720, 782.037788739806 
721, 791.155571798621 
722, 811.658580455055 
723, 827.775637672474 
724, 831.218429906229 
725, 822.200127923531 
726, 821.57028390533 
727, 825.293498782414 
728, 829.108100792129 
729, 831.294480124889 
730, 838.334178052431 
731, 849.16905937703 
732, 861.836672268138 
733, 876.766096675971 
734, 889.482709301094 
735, 898.363630722056 
736, 903.102639303892 
737, 902.717260854039 
738, 901.137970048669 
739, 900.098719893439 
740, 899.160841645584 
741, 898.575128375548 
742, 899.86303686113 
743, 903.307606033803 
744, 906.857177897295 
745, 909.640504054178 
746, 910.806781405299 
747, 910.260732643325 
748, 910.239204150015 
749, 907.895162213674 
750, 903.278347261429 
751, 898.700893048313 
752, 898.331106028531 
753, 898.627580286236 
754, 897.560111856549 
755, 895.967300329384 
756, 892.183859797083 
757, 874.586411993894 
758, 825.236535988803 
759, 715.9615256692 
760, 551.838622926833 
761, 389.545786794133 
762, 298.741495278958 
763, 297.412618606543 
764, 343.910129776553 
765, 417.924349023988 
766, 518.030720815902 
767, 625.181738332132 
768, 719.493375527796 
769, 787.168027520584 
770, 822.98938242285 
771, 841.771396817051 
772, 850.452323044184 
773, 852.963401954197 
774, 850.790020443505 
775, 849.187672617376 
776, 847.943720952655 
777, 844.690553072782 
778, 841.110722227261 
779, 838.658289235466 
780, 836.320138121004 
781, 831.398686956746 
782, 826.808793886001 
783, 822.745433127743 
784, 818.708972637329 
785, 813.806643117969 
786, 808.542882512704 
787, 803.076533212996 
788, 797.05091924713 
789, 788.946745886061 
790, 779.301733640506 
791, 769.773191114484 
792, 761.685178268418 
793, 751.697092192868 
794, 745.167828256021 
795, 742.808354697538 
796, 741.195753237826 
797, 737.676477285098 
798, 733.788364806257 
799, 729.769521688217 
800, 723.434193046209 
801, 715.161357201648 
802, 708.088204867036 
803, 703.532376508562 
804, 697.422545098152 
805, 691.393129664986 
806, 686.379597692986 
807, 682.087698685115 
808, 674.436347341441 
809, 666.34187163689 
810, 658.02173249547 
811, 648.16949328629 
812, 637.24981403052 
813, 622.065618169985 
814, 602.705225925666 
815, 582.593057796875 
816, 563.297125827173 
817, 547.814737253692 
818, 538.045426109175 
819, 534.073527991465 
820, 533.888064766528 
821, 532.760567710289 
822, 528.159898875966 
823, 523.607609127554 
824, 519.769731139474 
825, 519.879068937851 
826, 524.566474794144 
827, 523.607590614788 
828, 517.196841090052 
829, 509.038966635119 
830, 503.810989089123 
831, 500.169677499861 
832, 497.424560896344 
833, 494.784322819257 
834, 491.770228978088 
835, 490.941330712009 
836, 490.5742636569 
837, 489.534918755382 
838, 487.995727325242 
839, 484.895005684516 
840, 480.191744522862 
841, 474.597184423089 
842, 469.609577891499 
843, 464.317150888071 
844, 459.137193647387 
845, 454.632607491822 
846, 451.215838597187 
847, 445.29140004258 
848, 437.965482588433 
849, 430.980924153682 
850, 422.162891137277 
851, 411.893384362522 
852, 402.295679417147 
853, 395.38339084283 
854, 388.571699126638 
855, 383.86237071724 
856, 381.912353465223 
857, 382.523539739843 
858, 387.984417085387 
859, 389.223320969351 
860, 384.940892026629 
861, 381.051056836709 
862, 376.813854118884 
863, 370.575196941861 
864, 362.788112842685 
865, 356.151791756021 
866, 348.185823085806 
867, 340.99128383098 
868, 337.133438036345 
869, 338.372040455659 
870, 338.42335764621 
871, 337.539521226433 
872, 335.924946609032 
873, 331.00905647263 
874, 327.961235593063 
875, 324.742509994292 
876, 319.610915764771 
877, 315.880916080761 
878, 311.141597804685 
879, 307.015343479881 
880, 304.768830906133 
881, 301.50782553778 
882, 296.889337955961 
883, 292.882598043284 
884, 290.827566835399 
885, 287.047342361936 
886, 283.376940449651 
887, 278.562441433594 
888, 272.034753611865 
889, 270.797129651238 
890, 267.947396629354 
891, 263.20202037752 
892, 258.701210910602 
893, 251.255752026527 
894, 243.795823720943 
895, 236.324925142173 
896, 227.631849077179 
897, 219.486503951802 
898, 211.153564948316 
899, 203.247594893648 
900, 197.23680452998 
901, 193.908571706226 
902, 194.982907945909 
903, 197.049811103114 
904, 194.883019241636 
905, 192.497816427582 
906, 190.227984679754 
907, 187.347164474666 
908, 182.818154106576 
909, 177.188604843797 
910, 172.918973982258 
911, 170.251468669531 
912, 167.757194058133 
913, 165.153596220246 
914, 163.627380296101 
915, 162.650431633425 
916, 160.778396089255 
917, 159.59242930528 
918, 158.536969432745 
919, 157.418301460729 
920, 156.524703812139 
921, 156.797336092484 
922, 155.798096977277 
923, 152.853915877349 
924, 148.928883572565 
925, 145.033002092982 
926, 141.344804312428 
927, 136.805295817901 
928, 130.113859834319 
929, 123.180388113836 
930, 113.159444421247 
931, 102.065364428274 
932, 94.1045134083888 
933, 87.23656901525 
934, 81.5030342865908 
935, 77.4359935726805 
936, 75.4944846442822 
937, 74.8371072315265 
938, 74.8731118564346 
939, 75.2158164196608 
940, 75.6380916412708 
941, 75.9785106683097 
942, 75.9983352702504 
943, 76.3552000788803 
944, 77.066870734279 
945, 74.5185044609868 
946, 71.6136587438611 
947, 69.7984448191305 
948, 69.4597022849449 
949, 70.0244071988071 
950, 70.5646400258016 
951, 70.672348955899 
952, 70.2911784210727 
953, 69.5864797541012 
954, 69.3590030211764 
955, 68.9950126168533 
956, 68.4660875914655 
957, 69.5708872785386 
958, 68.801080822887 
959, 68.2639944410403 
960, 69.3325602190244 
961, 70.1541914675578 
962, 68.5935126151948 
963, 68.1507230122343 
964, 69.5186606692606 
965, 69.2127999026042 
966, 69.5081280807335 
967, 71.0312151350453 
968, 71.8802842118247 
969, 69.3542371133152 
970, 69.1684260863842 
971, 68.6394032305286 
972, 67.8909977401831 
973, 68.4606718405932 
974, 66.5034783263657 
975, 65.1184657492699 
976, 64.1598489655759 
977, 62.5824269666396 
978, 62.8807745640055 
979, 62.1621724939423 
980, 60.7240583608743 
981, 59.6888828255524 
982, 59.1437917952632 
983, 57.3890101639846 
984, 56.3081343945833 
985, 56.5968166365996 
986, 55.7704842233607 
987, 55.6507387164157 
988, 55.1402460031746 
989, 53.8297969758433 
990, 52.6340334226793 
991, 52.3783051376253 
992, 52.219027497748 
993, 51.1139020747328 
994, 48.6736447479374 
995, 46.9841755442996 
996, 45.9038427534788 
997, 45.1435196116925 
998, 44.7211958358196 
999, 45.9586927257771 
1000, 43.5524425461305 
1001, 263.700874795675 
1002, 261.349432354936 
1003, 257.510356238258 
1004, 254.695609873867 
1005, 258.330140283725 
1006, 263.170994631856 
1007, 267.194450042168 
1008, 274.332468847825 
1009, 275.376024545944 
1010, 266.001249909085 
1011, 263.059240434431 
1012, 260.208079298691 
1013, 260.848287809452 
1014, 261.961300095669 
1015, 264.001332515319 
1016, 268.476491357863 
1017, 267.566104593487 
1018, 265.737371498713 
1019, 270.899198521218 
1020, 272.382098362038 
1021, 270.259438890675 
1022, 270.962595798162 
1023, 272.480817883636 
1024, 274.936955633294 
1025, 276.547178004596 
1026, 277.56870218245 
1027, 283.265998953968 
1028, 288.2928742873 
1029, 294.479512315537 
1030, 304.18634290402 
1031, 305.95110962479 
1032, 302.573184589262 
1033, 307.460691033074 
1034, 311.791132236267 
1035, 312.230589824559 
1036, 314.128404315246 
1037, 317.227281371338 
1038, 310.223340539959 
1039, 303.976737686212 
1040, 304.935092427052 
1041, 304.566188737946 
1042, 303.629906670519 
1043, 305.580064682474 
1044, 307.699690450307 
1045, 311.680114561816 
1046, 318.755210898057 
1047, 322.142172227763 
1048, 324.43857674975 
1049, 325.573080093436 
1050, 321.418603716242 
1051, 312.929443899014 
1052, 309.373158516232 
1053, 306.58300508479 
1054, 306.881089035706 
1055, 311.887660672635 
1056, 314.687047346984 
1057, 317.028277972339 
1058, 319.997029519657 
1059, 323.171437568416 
1060, 325.022389724002 
1061, 325.382581439976 
1062, 325.68976929975 
1063, 325.387942016352 
1064, 324.095307255848 
1065, 324.4571099541 
1066, 328.367467026865 
1067, 333.341516378822 
1068, 337.593271016167 
1069, 337.515422458158 
1070, 337.726435978313 
1071, 337.075373658345 
1072, 329.705585308838 
1073, 332.279896293399 
1074, 346.425314253629 
1075, 351.770640407286 
1076, 355.144202108993 
1077, 363.737705633108 
1078, 367.961788209279 
1079, 362.878016538434 
1080, 367.586063800023 
1081, 378.361318561502 
1082, 386.07733960609 
1083, 387.37555347194 
1084, 387.035888284246 
1085, 385.818428295696 
1086, 384.077422057123 
1087, 378.985005323466 
1088, 381.95842515544 
1089, 390.552631780251 
1090, 393.094487507274 
1091, 397.552766833568 
1092, 401.367869212485 
1093, 396.880938360445 
1094, 387.029882285036 
1095, 388.307974545112 
1096, 393.972624254117 
1097, 394.587369760955 
1098, 393.938149203984 
1099, 391.523236727523 
1100, 380.111220929605 
1101, 376.084720099842 
1102, 379.166644645807 
1103, 377.635191747413 
1104, 376.844390213946 
1105, 372.678981250824 
1106, 366.307781022747 
1107, 356.927311932105 
1108, 352.542689388364 
1109, 349.55075221914 
1110, 343.522233666415 
1111, 334.834432427334 
1112, 327.461720188464 
1113, 321.86134972476 
1114, 307.09941006374 
1115, 290.023867808191 
1116, 272.193577280185 
1117, 239.16526985485 
1118, 221.178600866074 
1119, 211.333144995962 
1120, 200.7228186858 
1121, 196.897684464236 
1122, 190.808865675528 
1123, 187.068401605322 
1124, 188.961711154255 
1125, 187.671280879511 
1126, 187.337004400431 
1127, 190.951969906704 
1128, 193.982937512532 
1129, 196.606695421758 
1130, 204.21246397927 
1131, 209.580901108214 
1132, 212.456569642358 
1133, 217.254443674852 
1134, 225.872672255124 
1135, 227.950831210677 
1136, 232.434750494736 
1137, 240.601301874225 
1138, 249.334927825164 
1139, 256.998479501878 
1140, 260.975529086984 
1141, 263.640615459922 
1142, 262.856242586846 
1143, 254.56005416293 
1144, 254.00954685292 
1145, 254.039227646087 
1146, 254.942505154922 
1147, 259.496508876151 
1148, 264.464666027622 
1149, 269.811241946131 
1150, 273.879900858087 
1151, 284.972822711467 
1152, 296.301241151162 
1153, 308.873016466082 
1154, 326.551793425758 
1155, 336.947653105748 
1156, 344.867702212172 
1157, 353.718595815528 
1158, 355.444857304059 
1159, 365.707796512388 
1160, 383.798319852099 
1161, 396.393327861308 
1162, 414.222250611065 
1163, 424.347813301736 
1164, 428.010514305196 
1165, 428.411142373123 
1166, 434.8205542263 
1167, 437.472755528689 
1168, 442.468981758543 
1169, 451.645477339901 
1170, 457.204235567179 
1171, 460.754855525953 
1172, 463.722373034316 
1173, 467.361011203292 
1174, 469.305756344261 
1175, 469.929916438972 
1176, 467.561547982423 
1177, 461.317395815905 
