Wavelength,0212202100026.asd
350, 3764.68080050678 
351, 3956.40030244335 
352, 4130.92938177147 
353, 4279.35767729079 
354, 4429.70946879028 
355, 4587.21090793652 
356, 4749.5012760954 
357, 4911.83960022292 
358, 5082.08753004889 
359, 5264.79633442304 
360, 5466.72458422165 
361, 5716.11048928608 
362, 5995.45492556812 
363, 6291.8436908098 
364, 6600.11303408389 
365, 6909.47944982281 
366, 7202.5953830081 
367, 7457.92875829352 
368, 7649.41692494367 
369, 7758.42617477053 
370, 7794.12777076755 
371, 7782.38857477617 
372, 7757.75955572394 
373, 7749.94678163365 
374, 7762.48470753814 
375, 7780.30736671551 
376, 7803.23191280354 
377, 7814.42246315857 
378, 7793.01903923735 
379, 7716.27988955513 
380, 7622.30559600903 
381, 7518.42584788412 
382, 7401.89204014792 
383, 7262.01435582959 
384, 7122.71218085652 
385, 7032.04061231081 
386, 7045.32681789907 
387, 7193.92435683126 
388, 7391.64516242152 
389, 7558.2975964626 
390, 7639.88498571986 
391, 7732.29386172874 
392, 7816.33221454707 
393, 7876.84041661971 
394, 7946.37042584829 
395, 8131.02641104782 
396, 8477.58491792471 
397, 8999.85456599174 
398, 9708.77176888265 
399, 10511.7061570752 
400, 11337.1848115895 
401, 12139.2148094348 
402, 12887.3349857597 
403, 13502.7652249865 
404, 13955.7209792886 
405, 14312.0711491685 
406, 14593.9627019392 
407, 14848.0993721692 
408, 15131.3613799151 
409, 15511.5122602165 
410, 15963.5346593991 
411, 16460.6939486123 
412, 16977.0670449732 
413, 17491.0328059632 
414, 17996.5632694313 
415, 18479.7947796356 
416, 18906.3400647779 
417, 19317.4475943618 
418, 19738.1643523845 
419, 20170.5471984196 
420, 20547.7403812289 
421, 20934.380197212 
422, 21355.5498767386 
423, 21797.3687070203 
424, 22204.8568423494 
425, 22526.7619967756 
426, 22712.3851004421 
427, 22702.7392365096 
428, 22620.8876819458 
429, 22659.5861657964 
430, 22957.9105574499 
431, 23372.5552816804 
432, 23933.3840350301 
433, 24759.0758213651 
434, 25977.6554916718 
435, 27221.9799661733 
436, 28170.6268201659 
437, 28775.8419438725 
438, 29417.6183094401 
439, 30071.7025514312 
440, 30692.2218178241 
441, 31265.5901139688 
442, 31993.9848475282 
443, 32747.6000508512 
444, 33433.8522982869 
445, 34003.8475537578 
446, 34460.7971269676 
447, 34876.1966816456 
448, 35322.0058282828 
449, 35863.8176360586 
450, 36302.3995384327 
451, 36523.9030906855 
452, 36498.8801342486 
453, 36398.0664134312 
454, 36193.829212899 
455, 35940.2246350658 
456, 35764.9978189367 
457, 35720.2114441555 
458, 35726.0821794376 
459, 35698.1078254002 
460, 35598.2018640123 
461, 35456.1864531214 
462, 35301.9090150683 
463, 35145.6200423041 
464, 34899.8842141474 
465, 34531.3753186283 
466, 34087.1380416128 
467, 33688.8380893706 
468, 33345.2681621258 
469, 33091.5340973783 
470, 32946.1806051453 
471, 32894.3086029566 
472, 32860.1467576273 
473, 32852.6568108258 
474, 32902.94843927 
475, 32889.8376698942 
476, 32857.6121345303 
477, 32845.1328086005 
478, 32864.7864062892 
479, 32974.1202701282 
480, 33119.880316913 
481, 33211.6752852049 
482, 33164.0838008778 
483, 32891.0341377724 
484, 32345.9161222619 
485, 31554.1543284688 
486, 30814.4667404035 
487, 30308.5545893346 
488, 30179.8328957057 
489, 30559.3901380498 
490, 31118.6952458407 
491, 31563.7376836007 
492, 31718.2484150056 
493, 31774.6888505196 
494, 31869.7806110246 
495, 32056.210193577 
496, 32296.2413611644 
497, 32360.1454151225 
498, 32259.1269081703 
499, 32050.9230340627 
500, 31773.3426313349 
501, 31573.027354267 
502, 31503.727323597 
503, 31583.6615613607 
504, 31899.0635534616 
505, 32318.5852452079 
506, 32727.5774510951 
507, 33050.345650496 
508, 33292.5437232272 
509, 33483.1416715295 
510, 33665.3897623821 
511, 33913.4794063198 
512, 34075.8206857351 
513, 34093.4470403995 
514, 33962.9793519642 
515, 33666.7405392735 
516, 33274.1852157925 
517, 32901.9619737226 
518, 32706.5670412697 
519, 33019.8072139426 
520, 33850.8595813235 
521, 34987.2286486793 
522, 35910.7187283609 
523, 36594.6672731232 
524, 37074.9304070881 
525, 37426.1375284111 
526, 37567.5625142802 
527, 37625.5549368345 
528, 37837.2350779469 
529, 38631.2525023761 
530, 39636.8806105379 
531, 40454.2399768577 
532, 40775.1826195909 
533, 40881.6175004363 
534, 41073.6068991993 
535, 41500.7040456604 
536, 42130.9725060566 
537, 42566.3603744085 
538, 42752.5224038689 
539, 42764.1943554655 
540, 42744.4898344044 
541, 42786.0138866234 
542, 43019.81100652 
543, 43546.0042324932 
544, 44125.0659980658 
545, 44618.1113843386 
546, 44954.4404513973 
547, 45140.5528065862 
548, 45265.0807538456 
549, 45420.0089916383 
550, 45658.0890013802 
551, 45895.1292640934 
552, 46075.5683351718 
553, 46208.1915876581 
554, 46350.2315361531 
555, 46459.7236141311 
556, 46410.7907214505 
557, 46136.9583226813 
558, 45698.8656493603 
559, 45336.3170769062 
560, 45187.0606499546 
561, 45293.4263996623 
562, 45514.8562373962 
563, 45633.2475020402 
564, 45551.7845518026 
565, 45325.2153728853 
566, 45007.8005180846 
567, 44695.5971680431 
568, 44444.6538389185 
569, 44176.8279198765 
570, 43818.1073644676 
571, 43479.7834361584 
572, 43371.4809343984 
573, 43444.4355752473 
574, 43451.1360751462 
575, 43241.0667003047 
576, 42857.6037466332 
577, 42520.1565651614 
578, 42349.8101910571 
579, 42399.9793042163 
580, 42622.4876051477 
581, 43015.3778554733 
582, 43488.7019378105 
583, 43873.6209767579 
584, 44107.6793206518 
585, 44082.1623825772 
586, 43789.0096634952 
587, 43453.9112979993 
588, 43051.2139763854 
589, 42489.6040784062 
590, 41758.6522197506 
591, 41578.1711945469 
592, 41837.2103887969 
593, 42193.5622733799 
594, 42128.5151781932 
595, 41884.2260964944 
596, 41568.5894033028 
597, 41238.9474258538 
598, 40867.9973480642 
599, 40416.722470167 
600, 39931.9256519466 
601, 39517.5553140643 
602, 39192.3230077339 
603, 39023.9912634611 
604, 39012.1000794835 
605, 39045.6595328525 
606, 38945.2278660117 
607, 38714.8560103612 
608, 38435.4372096274 
609, 38152.8720160583 
610, 37888.3954803109 
611, 37656.7379247436 
612, 37463.9589651222 
613, 37252.8223355203 
614, 37001.2217211949 
615, 36727.506239897 
616, 36519.1166373057 
617, 36384.6222531754 
618, 36389.6796841534 
619, 36578.4947070097 
620, 36744.6282473969 
621, 36751.2157822644 
622, 36559.4884977463 
623, 36242.3525425652 
624, 35893.4020430625 
625, 35569.3059116044 
626, 35298.1104234519 
627, 35074.9807923718 
628, 34838.7885322507 
629, 34601.3605909805 
630, 34431.934404762 
631, 34446.4386945221 
632, 34562.9892421327 
633, 34706.0490785163 
634, 34860.7427068155 
635, 34972.8271795567 
636, 35046.1500483548 
637, 35098.1849222616 
638, 35114.2844969378 
639, 35052.2263833978 
640, 34882.1706384173 
641, 34601.8926961931 
642, 34399.1365613374 
643, 34290.0269070638 
644, 34223.6279267075 
645, 34086.2836485994 
646, 33873.5446929538 
647, 33614.270694968 
648, 33357.6821498201 
649, 33139.910114335 
650, 32956.8988429273 
651, 32853.2291403773 
652, 32909.2107475655 
653, 32826.8214661903 
654, 32441.6119087903 
655, 31732.5725444172 
656, 30875.2735146646 
657, 30277.0315742833 
658, 30330.585210151 
659, 31203.7369451648 
660, 31960.7498638222 
661, 32361.5445669441 
662, 32440.2288694864 
663, 32473.8607416093 
664, 32428.8031779642 
665, 32372.0894562946 
666, 32357.6110445067 
667, 32360.4805322935 
668, 32344.3856812964 
669, 32313.3084477947 
670, 32287.1048837292 
671, 32211.0944740624 
672, 32125.8872965887 
673, 32077.7092822812 
674, 32105.4166278089 
675, 32142.5757846888 
676, 32167.3060567492 
677, 32177.8898062463 
678, 32195.7538639675 
679, 32201.160587436 
680, 32191.4763116741 
681, 32173.5028719538 
682, 32149.0223228096 
683, 32073.5445675704 
684, 31807.2323618276 
685, 31090.3020917457 
686, 29814.745847256 
687, 28062.2251454815 
688, 26268.3039030894 
689, 25691.4304214992 
690, 26338.2855867748 
691, 27670.1464648452 
692, 28844.1204282384 
693, 29872.5066317023 
694, 30611.9570760739 
695, 31044.8802964466 
696, 31332.5681637407 
697, 31563.6510815917 
698, 31703.8000680674 
699, 31708.2444089521 
700, 31636.7336885441 
701, 31564.8815084157 
702, 31558.1717210382 
703, 31667.0155067125 
704, 31913.9939801984 
705, 32196.9022731286 
706, 32424.972896208 
707, 32548.1859234641 
708, 32649.4253541255 
709, 32740.491969991 
710, 32818.2263877519 
711, 32900.6110509502 
712, 32955.0405009718 
713, 32969.4437161219 
714, 32935.0615246051 
715, 32798.5004376629 
716, 32429.0041682117 
717, 31763.9960484354 
718, 30840.2166946919 
719, 30069.8572980023 
720, 29806.7822732359 
721, 30185.6642465735 
722, 30921.6127835699 
723, 31401.2951688377 
724, 31452.7663032743 
725, 31234.2619598481 
726, 31218.743385572 
727, 31314.5679338766 
728, 31415.9224309229 
729, 31469.2157014889 
730, 31652.1148488093 
731, 31993.9240287929 
732, 32455.6771225047 
733, 32940.4504370193 
734, 33347.6478962667 
735, 33592.7060012191 
736, 33639.8717989173 
737, 33593.6249050748 
738, 33526.2744878379 
739, 33453.6434190564 
740, 33350.5442535122 
741, 33304.5043678004 
742, 33333.2877916501 
743, 33426.7406157328 
744, 33554.5510989724 
745, 33634.0662374904 
746, 33660.510520849 
747, 33651.2462153668 
748, 33598.6591394218 
749, 33480.5586650614 
750, 33322.0968244122 
751, 33180.7638254225 
752, 33109.7608314274 
753, 33087.968457275 
754, 33078.3492449404 
755, 33034.7978754658 
756, 32869.0213282918 
757, 32185.2586615272 
758, 30323.4618066416 
759, 26107.0727374705 
760, 19990.3710547296 
761, 14161.2503654743 
762, 11153.0313866893 
763, 11374.9161765407 
764, 13233.1000952066 
765, 15974.5035432416 
766, 19586.1744556532 
767, 23438.80940711 
768, 26711.374238967 
769, 28927.337707414 
770, 30132.5877827289 
771, 30706.5332594998 
772, 30915.2396074078 
773, 30952.3470259769 
774, 30918.2919253498 
775, 30827.8574864161 
776, 30716.0790737328 
777, 30609.7272896842 
778, 30471.7934787463 
779, 30310.5163216053 
780, 30150.4503735346 
781, 30020.8890831579 
782, 29875.3690075463 
783, 29706.5621140812 
784, 29520.754049866 
785, 29334.6845044655 
786, 29155.8456172131 
787, 28953.1350679793 
788, 28699.2302975716 
789, 28404.8065794942 
790, 28088.3937713268 
791, 27757.0136276834 
792, 27416.6976526343 
793, 27086.9323027426 
794, 26822.0530834316 
795, 26652.3026164909 
796, 26575.1306670286 
797, 26516.7399766182 
798, 26408.3969476852 
799, 26220.0701868344 
800, 25970.9842905589 
801, 25705.8209350277 
802, 25460.8161086877 
803, 25247.7129221547 
804, 25033.1117443072 
805, 24842.6696990716 
806, 24665.9893677002 
807, 24476.0997723561 
808, 24237.1506110346 
809, 23956.2155402296 
810, 23653.1966906331 
811, 23342.5274670318 
812, 22974.2014628124 
813, 22488.8451689314 
814, 21876.5186998174 
815, 21184.970743831 
816, 20536.3898337311 
817, 20015.4730858554 
818, 19678.5208207666 
819, 19550.8863627491 
820, 19489.1448698535 
821, 19398.6712427147 
822, 19244.5533105817 
823, 19081.4207418649 
824, 18972.2788507378 
825, 18975.7998737942 
826, 19071.3443755059 
827, 19007.4563398009 
828, 18798.7807949337 
829, 18529.4217401034 
830, 18308.416836279 
831, 18149.7444866707 
832, 18023.6980040855 
833, 17916.2994425892 
834, 17831.2361221566 
835, 17779.5134546768 
836, 17743.4649018391 
837, 17693.03299952 
838, 17592.1511933191 
839, 17450.9600469024 
840, 17284.1261055011 
841, 17104.3812888086 
842, 16917.724495309 
843, 16724.6082631177 
844, 16532.2718425161 
845, 16345.4278539015 
846, 16163.794563705 
847, 15939.9463099568 
848, 15670.7935818895 
849, 15373.5385296506 
850, 15073.6039996354 
851, 14727.6152541967 
852, 14373.3443560362 
853, 14078.8179826817 
854, 13854.1355802113 
855, 13672.3358418923 
856, 13587.8881750049 
857, 13673.4619632795 
858, 13797.2763066255 
859, 13816.5809484479 
860, 13707.8596085463 
861, 13551.9012866977 
862, 13364.5860282174 
863, 13125.5573459189 
864, 12840.074243557 
865, 12547.9295146462 
866, 12269.2313248705 
867, 12033.7430539412 
868, 11881.0076112475 
869, 11857.2198166939 
870, 11879.3855777865 
871, 11857.4398932207 
872, 11751.6940362149 
873, 11610.2733937097 
874, 11455.9654204878 
875, 11300.253142497 
876, 11148.1622637575 
877, 11001.9984635611 
878, 10856.8933118514 
879, 10713.7176654028 
880, 10572.4108498052 
881, 10424.7969205807 
882, 10280.6896104242 
883, 10146.1178886368 
884, 10021.5650568337 
885, 9896.94651839098 
886, 9761.12145107434 
887, 9618.60982691699 
888, 9479.06377327141 
889, 9342.34521586508 
890, 9208.63497160467 
891, 9062.86042365212 
892, 8886.01162150582 
893, 8675.49315030534 
894, 8435.06223655282 
895, 8170.78617795185 
896, 7891.37032492739 
897, 7607.82010041707 
898, 7339.98129502865 
899, 7114.23549869366 
900, 6953.73811547632 
901, 6854.21205075657 
902, 6801.07890816451 
903, 6772.78557903156 
904, 6745.19833571598 
905, 6703.28885286431 
906, 6631.23285455882 
907, 6515.66459699926 
908, 6354.56685610697 
909, 6186.70558594077 
910, 6045.93826267647 
911, 5942.63640374242 
912, 5866.55441462727 
913, 5801.57280576747 
914, 5738.4350333142 
915, 5675.03791683742 
916, 5615.56070493539 
917, 5569.10010758061 
918, 5528.42547243618 
919, 5490.3987873228 
920, 5454.45012810096 
921, 5410.93998327875 
922, 5357.53094066064 
923, 5285.62438686321 
924, 5184.73185725545 
925, 5060.20657646158 
926, 4912.79015257816 
927, 4736.68128098089 
928, 4523.27562796362 
929, 4271.57051545057 
930, 3989.02182278498 
931, 3690.44937792859 
932, 3397.09349407877 
933, 3135.3843287248 
934, 2926.20330652959 
935, 2782.69026951269 
936, 2706.84313743907 
937, 2682.33761306926 
938, 2692.53519513652 
939, 2718.10319177696 
940, 2742.01712216331 
941, 2759.36883733338 
942, 2760.66609983315 
943, 2734.71030643042 
944, 2678.2505261179 
945, 2610.57248791326 
946, 2553.30101623729 
947, 2516.12064822089 
948, 2498.54604656405 
949, 2491.87282846426 
950, 2482.77927308997 
951, 2469.981785846 
952, 2455.86776101581 
953, 2439.4202152112 
954, 2422.9226428262 
955, 2406.98298778065 
956, 2392.61006195914 
957, 2382.35352238054 
958, 2374.10983169082 
959, 2366.76218018568 
960, 2360.83971010949 
961, 2358.55822100603 
962, 2354.0431985647 
963, 2352.43498743789 
964, 2354.45035927763 
965, 2353.53437446438 
966, 2349.3285932656 
967, 2341.05474436668 
968, 2327.85795185715 
969, 2309.48041706019 
970, 2290.27066222552 
971, 2265.63573534139 
972, 2232.97823251659 
973, 2192.74228023085 
974, 2148.31853716726 
975, 2102.79314662346 
976, 2058.04640982265 
977, 2015.95011056113 
978, 1980.92481613096 
979, 1950.8510018261 
980, 1924.17354830535 
981, 1899.24142524434 
982, 1874.06119129357 
983, 1847.07837709087 
984, 1818.555954526 
985, 1788.96701035973 
986, 1758.03772993692 
987, 1723.0264770072 
988, 1687.78534345728 
989, 1653.4263428942 
990, 1617.23394732791 
991, 1581.23926451418 
992, 1545.10938332419 
993, 1509.32002712977 
994, 1474.6603137668 
995, 1440.16781127821 
996, 1404.02100808448 
997, 1367.64256321475 
998, 1332.91622278163 
999, 1298.33134381938 
1000, 1263.51867144251 
1001, 7876.66437682292 
1002, 7839.65091719709 
1003, 7814.07511352756 
1004, 7801.29216504306 
1005, 7796.98138453442 
1006, 7797.07181441014 
1007, 7809.73884551488 
1008, 7829.38321232141 
1009, 7847.6099903492 
1010, 7869.97134611435 
1011, 7899.97487887119 
1012, 7934.95349460838 
1013, 7965.05258182082 
1014, 8003.82420196751 
1015, 8037.86504563608 
1016, 8064.77465368452 
1017, 8096.92883262098 
1018, 8130.06482010024 
1019, 8165.77926552344 
1020, 8208.42902880235 
1021, 8249.60851469671 
1022, 8292.39744685471 
1023, 8337.89461131504 
1024, 8386.42314705286 
1025, 8433.25191903354 
1026, 8481.5031192338 
1027, 8533.07800707598 
1028, 8581.74676701211 
1029, 8626.13606986303 
1030, 8667.91933381788 
1031, 8707.19410459447 
1032, 8745.82726038265 
1033, 8775.84977890308 
1034, 8803.63513914793 
1035, 8835.35404553444 
1036, 8866.89263214782 
1037, 8895.36268455594 
1038, 8927.52799342347 
1039, 8961.13237277816 
1040, 8988.81058883935 
1041, 9012.12582124737 
1042, 9036.75981879184 
1043, 9064.97768002467 
1044, 9092.50343233857 
1045, 9118.49385134382 
1046, 9146.42830715184 
1047, 9173.58478436654 
1048, 9199.73681294577 
1049, 9221.80979580155 
1050, 9244.1583912203 
1051, 9275.22774596219 
1052, 9311.25666142623 
1053, 9346.58842959655 
1054, 9383.59093500958 
1055, 9419.6888239023 
1056, 9452.30151368232 
1057, 9488.48945086765 
1058, 9536.55591005212 
1059, 9586.72981812872 
1060, 9642.37169650811 
1061, 9702.11583386543 
1062, 9769.55945255966 
1063, 9839.42519920957 
1064, 9924.56486227063 
1065, 10021.5902590757 
1066, 10110.8670186401 
1067, 10213.6186370572 
1068, 10326.0428232962 
1069, 10434.7149115599 
1070, 10564.0187378464 
1071, 10709.0486857872 
1072, 10847.7166650373 
1073, 10985.9519167314 
1074, 11135.4948891512 
1075, 11266.7671623555 
1076, 11388.8205151859 
1077, 11508.7516232595 
1078, 11615.0381654539 
1079, 11717.2265521345 
1080, 11809.0035514915 
1081, 11888.8224521203 
1082, 11966.183536857 
1083, 12038.8244822435 
1084, 12108.5314673547 
1085, 12174.449896273 
1086, 12235.2595272538 
1087, 12296.7566856215 
1088, 12341.7747665511 
1089, 12383.2027161791 
1090, 12406.3736945495 
1091, 12414.128148468 
1092, 12407.7149890983 
1093, 12390.8777368658 
1094, 12366.6067247169 
1095, 12339.1473655474 
1096, 12314.0076906842 
1097, 12288.4855901626 
1098, 12261.8363718991 
1099, 12237.885047041 
1100, 12215.3754717803 
1101, 12190.4435718882 
1102, 12174.0236066501 
1103, 12140.5527216821 
1104, 12106.6680464405 
1105, 12058.8622484785 
1106, 11988.0132540184 
1107, 11894.0789432416 
1108, 11758.2596354853 
1109, 11573.5979463268 
1110, 11320.5863362494 
1111, 11011.3101724179 
1112, 10650.7094016836 
1113, 10206.8088333907 
1114, 9771.13919686569 
1115, 9266.97940624845 
1116, 8811.08527525231 
1117, 8322.18813206815 
1118, 7903.66591361373 
1119, 7511.64575129915 
1120, 7159.74547827926 
1121, 6873.32020551897 
1122, 6641.36574786017 
1123, 6480.32900112019 
1124, 6373.06783956956 
1125, 6325.65384082683 
1126, 6362.66239346463 
1127, 6397.28160253902 
1128, 6491.06460221578 
1129, 6576.73669169309 
1130, 6683.82474300508 
1131, 6790.87114017709 
1132, 6895.97163204878 
1133, 7030.05878791109 
1134, 7172.06160761891 
1135, 7332.14384516577 
1136, 7560.14691870193 
1137, 7798.24650232697 
1138, 8034.69029119626 
1139, 8256.06497733769 
1140, 8402.46826421927 
1141, 8510.40396467503 
1142, 8557.9353118305 
1143, 8518.55632326702 
1144, 8498.90979293454 
1145, 8376.64260835374 
1146, 8370.13029783194 
1147, 8372.51644793629 
1148, 8452.97586694297 
1149, 8613.11456819913 
1150, 8808.45568339265 
1151, 9069.28589258806 
1152, 9362.86578823694 
1153, 9667.30616719297 
1154, 10028.9611178643 
1155, 10354.6213090113 
1156, 10690.2379299434 
1157, 11004.5470830642 
1158, 11316.0972438083 
1159, 11605.1346140013 
1160, 11888.1546903397 
1161, 12138.9940636215 
1162, 12371.4675353823 
1163, 12577.4125310381 
1164, 12755.3801684796 
1165, 12910.5024096117 
1166, 13049.4272940138 
1167, 13151.1859531567 
1168, 13230.5641549278 
1169, 13282.0697691516 
1170, 13315.2400332452 
1171, 13316.8637721186 
1172, 13313.0067708091 
1173, 13293.5074473386 
1174, 13256.8667816874 
1175, 13199.7034648057 
1176, 13136.807275161 
