Wavelength,0212202100003.asd
350, 3645.87301011588 
351, 3826.06604841534 
352, 3992.42253152555 
353, 4138.78188092702 
354, 4289.4965546698 
355, 4445.64182076897 
356, 4603.01689247814 
357, 4761.87383287681 
358, 4928.32735011598 
359, 5110.22095445806 
360, 5317.19338199331 
361, 5564.41494300009 
362, 5838.32475791086 
363, 6127.24110068733 
364, 6423.95222569907 
365, 6726.37712967657 
366, 7012.23393135864 
367, 7256.72826876604 
368, 7438.33267642315 
369, 7540.11666979344 
370, 7575.48025586235 
371, 7572.16844947233 
372, 7556.76055153913 
373, 7553.99732366727 
374, 7568.98704871354 
375, 7591.87635347294 
376, 7618.39154594065 
377, 7628.81594184206 
378, 7603.46470335187 
379, 7525.82960583863 
380, 7435.71254525853 
381, 7337.31137714095 
382, 7225.4944478798 
383, 7092.70657134819 
384, 6968.19561047281 
385, 6897.18443697529 
386, 6926.64050052099 
387, 7076.03021405894 
388, 7259.63676808621 
389, 7410.21371285529 
390, 7496.40738412048 
391, 7596.61052605765 
392, 7680.34296272857 
393, 7734.38586046982 
394, 7820.87051800579 
395, 8024.5711347687 
396, 8385.36231924873 
397, 8914.65989297925 
398, 9617.55274265614 
399, 10407.1457416508 
400, 11217.0119755862 
401, 12004.0618197685 
402, 12727.0017863713 
403, 13323.0225715816 
404, 13771.44566392 
405, 14126.531098508 
406, 14408.5078064511 
407, 14667.7533567929 
408, 14963.1539229499 
409, 15348.6858097703 
410, 15799.6865123993 
411, 16293.0702707414 
412, 16808.2889755389 
413, 17322.0778913964 
414, 17824.0373461813 
415, 18300.029201701 
416, 18722.6620114652 
417, 19139.1640981271 
418, 19565.7252692783 
419, 19995.8559658868 
420, 20375.9283469412 
421, 20766.4173642106 
422, 21190.3371592729 
423, 21633.2167009946 
424, 22035.9142131748 
425, 22352.3779500839 
426, 22533.3657629511 
427, 22511.5250599909 
428, 22447.5624550036 
429, 22518.3044818989 
430, 22836.4628704959 
431, 23261.9860200916 
432, 23849.7158530291 
433, 24707.8906762797 
434, 25928.8827742142 
435, 27134.0340401618 
436, 28056.2635857402 
437, 28672.8447722797 
438, 29323.3921957487 
439, 29981.4616196939 
440, 30610.8358110209 
441, 31204.5405000673 
442, 31938.4857832407 
443, 32687.3039230814 
444, 33367.4222427992 
445, 33940.5799314299 
446, 34401.1600930667 
447, 34829.643722573 
448, 35297.0583395283 
449, 35845.8907538488 
450, 36272.6841419473 
451, 36481.4010901166 
452, 36461.3147967346 
453, 36363.5160838645 
454, 36168.4132955709 
455, 35931.5058264552 
456, 35774.7401190267 
457, 35738.4952022369 
458, 35747.7783506673 
459, 35724.2433787834 
460, 35632.0182920617 
461, 35498.003775776 
462, 35349.6418659392 
463, 35195.5444197727 
464, 34949.2362660381 
465, 34581.940827331 
466, 34143.308275457 
467, 33755.1194172231 
468, 33422.1026875355 
469, 33180.3484278575 
470, 33047.4503345763 
471, 32999.1279743295 
472, 32969.7308330656 
473, 32968.0032525959 
474, 33020.2737371497 
475, 33004.337273595 
476, 32974.0453990725 
477, 32970.0741691357 
478, 32996.0247644543 
479, 33116.3475922925 
480, 33271.7342916356 
481, 33366.5441271322 
482, 33324.4956020055 
483, 33038.8310287034 
484, 32471.7521926314 
485, 31675.4006006322 
486, 30957.5605755084 
487, 30484.3696633091 
488, 30388.4793804278 
489, 30804.9466702224 
490, 31366.0913951565 
491, 31796.156260259 
492, 31949.0703891392 
493, 32013.649333345 
494, 32119.7472208915 
495, 32315.8136531686 
496, 32561.9470185483 
497, 32619.2275055392 
498, 32510.8887576787 
499, 32303.0324696414 
500, 32026.1034622776 
501, 31834.1139812881 
502, 31778.0711808078 
503, 31871.1091098141 
504, 32206.8586878305 
505, 32638.2292100887 
506, 33048.3974596963 
507, 33375.23653768 
508, 33618.3954514889 
509, 33815.7978418278 
510, 34014.0417966829 
511, 34267.4865577932 
512, 34428.1649627986 
513, 34443.036057735 
514, 34313.6378392163 
515, 34003.4836724 
516, 33600.48502765 
517, 33234.4095250481 
518, 33060.9043607684 
519, 33421.0955791377 
520, 34299.8997077947 
521, 35457.8576802808 
522, 36377.9951065419 
523, 37061.1715987446 
524, 37545.9658179938 
525, 37890.4444741361 
526, 38016.6559004155 
527, 38076.7691223299 
528, 38321.382814251 
529, 39164.7250649409 
530, 40196.1597351804 
531, 41005.9204757877 
532, 41298.3729069169 
533, 41401.6729067703 
534, 41618.1185997179 
535, 42080.9993555612 
536, 42726.6914447445 
537, 43162.4626281922 
538, 43341.679952873 
539, 43348.2046267288 
540, 43333.3007692632 
541, 43389.0601569897 
542, 43646.7318309413 
543, 44203.8412513284 
544, 44796.7204272057 
545, 45295.2217267771 
546, 45635.1853555629 
547, 45819.2570658044 
548, 45949.6145039119 
549, 46117.5302377631 
550, 46369.4307968903 
551, 46613.3826499591 
552, 46798.2107323781 
553, 46936.414176063 
554, 47087.3691482277 
555, 47203.7815889709 
556, 47148.7504973752 
557, 46853.8670020184 
558, 46397.0993488236 
559, 46033.9718576549 
560, 45902.4871459939 
561, 46033.8784785144 
562, 46263.943539391 
563, 46378.9631355457 
564, 46287.8463580255 
565, 46049.500036824 
566, 45715.822419705 
567, 45394.506438513 
568, 45146.1438221428 
569, 44865.6403672226 
570, 44484.0575914177 
571, 44129.0217619844 
572, 44030.245704938 
573, 44124.942248015 
574, 44127.980640872 
575, 43880.879679681 
576, 43472.1419021533 
577, 43133.8951301573 
578, 42974.1416273806 
579, 43030.3140636828 
580, 43277.4933145251 
581, 43708.2015322528 
582, 44219.1658517609 
583, 44623.2034744587 
584, 44862.8921591803 
585, 44828.0232435377 
586, 44516.0434425149 
587, 44178.7778066229 
588, 43764.2428306108 
589, 43167.1681108857 
590, 42387.030950917 
591, 42270.984075819 
592, 42591.300293119 
593, 42943.8577766687 
594, 42847.3682386696 
595, 42587.2684983306 
596, 42273.2501348229 
597, 41949.5652341274 
598, 41573.8387713306 
599, 41113.8095349286 
600, 40621.3853528427 
601, 40203.6730567951 
602, 39872.4617593127 
603, 39713.2706201637 
604, 39726.5075149755 
605, 39767.0265035251 
606, 39653.9342607123 
607, 39406.5338939668 
608, 39122.9831070503 
609, 38839.3584582469 
610, 38570.6539583365 
611, 38335.0233675299 
612, 38149.5587442732 
613, 37933.8142995693 
614, 37672.8174902933 
615, 37394.0544021535 
616, 37183.7309489924 
617, 37046.7196955596 
618, 37061.5228747558 
619, 37282.5380099541 
620, 37444.9004521873 
621, 37434.3091312115 
622, 37226.3574222886 
623, 36888.5956703558 
624, 36527.7851496117 
625, 36195.8682125301 
626, 35914.8726036064 
627, 35688.6784118773 
628, 35428.6652517172 
629, 35164.6909028788 
630, 35007.7654867083 
631, 35045.5690487618 
632, 35184.9060504989 
633, 35345.6664444575 
634, 35516.3345478652 
635, 35637.5826810254 
636, 35716.1094577795 
637, 35774.8188605419 
638, 35805.342884686 
639, 35744.6238397021 
640, 35561.1488678469 
641, 35268.5447965905 
642, 35071.1182011568 
643, 34973.0973819517 
644, 34910.1137400419 
645, 34762.3170081819 
646, 34537.8790017342 
647, 34269.1184059228 
648, 34004.5624909018 
649, 33776.9132965422 
650, 33591.4140355139 
651, 33498.8605493122 
652, 33579.931316558 
653, 33493.5693540565 
654, 33088.5661863315 
655, 32352.9647610445 
656, 31415.7122215206 
657, 30805.5767203443 
658, 30940.432354729 
659, 31938.4485624706 
660, 32679.7984870543 
661, 33042.1435534802 
662, 33120.7424296828 
663, 33152.2051487305 
664, 33097.4375161992 
665, 33038.2557036468 
666, 33036.0570813413 
667, 33034.6930585598 
668, 33016.5593018251 
669, 32988.3727288243 
670, 32963.6363496796 
671, 32882.5730395114 
672, 32792.6877202433 
673, 32746.8314645143 
674, 32788.2444787358 
675, 32827.1698755946 
676, 32849.7270761194 
677, 32864.7077836671 
678, 32882.191706237 
679, 32886.9834079027 
680, 32877.5928134519 
681, 32860.0264314598 
682, 32838.4728223099 
683, 32762.6402514941 
684, 32484.9195127087 
685, 31737.5532565375 
686, 30372.4691900442 
687, 28462.4786349995 
688, 26505.6278012026 
689, 26028.5975771906 
690, 26811.4209409378 
691, 28233.8552340904 
692, 29473.3075047141 
693, 30541.1853157213 
694, 31293.0131545685 
695, 31723.3909449764 
696, 32024.6938493422 
697, 32278.5764839377 
698, 32431.6251053074 
699, 32427.4510038553 
700, 32352.7275623085 
701, 32282.3024547556 
702, 32286.1423608361 
703, 32419.9570609191 
704, 32694.2951127148 
705, 32997.9516561791 
706, 33236.7683136376 
707, 33364.3642135609 
708, 33476.3245018359 
709, 33579.0847135215 
710, 33663.9422519069 
711, 33762.0496983328 
712, 33822.1550864994 
713, 33836.386941574 
714, 33809.6785071005 
715, 33667.9008454282 
716, 33266.8502176962 
717, 32540.3507387704 
718, 31533.3062240285 
719, 30721.0599589885 
720, 30483.8783382421 
721, 30948.2065436267 
722, 31772.2145979549 
723, 32259.1657984985 
724, 32260.9641631345 
725, 32014.5195209912 
726, 32018.5374233236 
727, 32134.9960719717 
728, 32239.1349323634 
729, 32296.8980524194 
730, 32506.3273637206 
731, 32886.2723278336 
732, 33386.7118780858 
733, 33917.994302632 
734, 34356.5548832418 
735, 34611.2499619042 
736, 34652.3672153624 
737, 34611.9645014053 
738, 34552.1621091965 
739, 34483.1262113049 
740, 34380.887035654 
741, 34347.6156627543 
742, 34392.9726775572 
743, 34499.9748927365 
744, 34640.9680612282 
745, 34722.8037158826 
746, 34748.5916762947 
747, 34744.1302856029 
748, 34690.9026096439 
749, 34564.9520932836 
750, 34397.8218754443 
751, 34256.73100306 
752, 34188.8581540601 
753, 34173.4116325005 
754, 34169.5110933037 
755, 34121.9762624236 
756, 33952.8974371414 
757, 33237.5725477696 
758, 31251.0455515647 
759, 26670.9728242222 
760, 20122.6367714238 
761, 14027.9088727097 
762, 11084.3715189186 
763, 11440.7208935845 
764, 13426.5711701678 
765, 16314.6857660709 
766, 20176.5326668321 
767, 24244.4083499013 
768, 27660.1026697559 
769, 29946.5205921322 
770, 31178.8793067106 
771, 31763.6834372994 
772, 31976.2812841749 
773, 32012.9084671062 
774, 31976.3822835684 
775, 31887.29599223 
776, 31777.6106113816 
777, 31667.893833122 
778, 31522.755010866 
779, 31354.5360042241 
780, 31190.5470228243 
781, 31060.8780552047 
782, 30916.0301424826 
783, 30741.5009327066 
784, 30545.000272928 
785, 30358.1427698405 
786, 30173.9805849438 
787, 29959.752841547 
788, 29690.5017559684 
789, 29380.1807933534 
790, 29049.5415033354 
791, 28706.4311925001 
792, 28357.0037449275 
793, 28021.4276904654 
794, 27755.3968750044 
795, 27587.7272804199 
796, 27512.3002450584 
797, 27453.9371861106 
798, 27340.4142346783 
799, 27142.1254877571 
800, 26883.7679194518 
801, 26608.8121716867 
802, 26356.0031138514 
803, 26138.6745245154 
804, 25921.5675097069 
805, 25730.8263023698 
806, 25553.3951166792 
807, 25358.8303950554 
808, 25108.8301821902 
809, 24814.0841167737 
810, 24497.4233908589 
811, 24173.1881289725 
812, 23778.0583777265 
813, 23254.3126562204 
814, 22598.2758468193 
815, 21866.8159717859 
816, 21186.9398652285 
817, 20650.5131912774 
818, 20315.4848525052 
819, 20201.0327483333 
820, 20148.8876787756 
821, 20061.8541553531 
822, 19905.88041779 
823, 19734.1241249551 
824, 19628.857843484 
825, 19645.9469405761 
826, 19752.3782686976 
827, 19682.3839537506 
828, 19460.8561981113 
829, 19181.5248052975 
830, 18960.030012209 
831, 18805.3184373751 
832, 18682.7042884368 
833, 18577.4807714582 
834, 18496.1389371375 
835, 18451.0388200294 
836, 18421.2140391464 
837, 18373.3866393878 
838, 18269.594118738 
839, 18123.8713550823 
840, 17953.6214286497 
841, 17771.0073961928 
842, 17576.6552410381 
843, 17374.5317996455 
844, 17176.8429580813 
845, 16988.7985561718 
846, 16799.230464484 
847, 16565.1090093039 
848, 16286.800798389 
849, 15982.0996490575 
850, 15667.9435900982 
851, 15305.6284704095 
852, 14938.8442766912 
853, 14639.1331755334 
854, 14406.8444539132 
855, 14221.9920304024 
856, 14140.9856217699 
857, 14233.5051903982 
858, 14360.9901238569 
859, 14376.3797012179 
860, 14258.8010458685 
861, 14096.1990293375 
862, 13898.2432393668 
863, 13648.7267552358 
864, 13353.2002359074 
865, 13047.1305242371 
866, 12763.2612060245 
867, 12525.3946713921 
868, 12369.6471614905 
869, 12346.8371751433 
870, 12368.0200808593 
871, 12341.5232605761 
872, 12228.3119987101 
873, 12079.116757511 
874, 11920.8590368039 
875, 11761.365904355 
876, 11602.3239388149 
877, 11448.1698260754 
878, 11298.1632730756 
879, 11150.9945444669 
880, 11004.0174251129 
881, 10851.3694441689 
882, 10702.106081359 
883, 10561.5040227776 
884, 10429.6088569846 
885, 10296.5748899779 
886, 10155.5102822861 
887, 10008.0917675021 
888, 9860.72442573733 
889, 9721.26954591316 
890, 9579.71642205789 
891, 9423.26696505112 
892, 9238.56768050745 
893, 9014.69362876742 
894, 8757.78312165795 
895, 8476.34911453167 
896, 8180.93737725615 
897, 7881.72995861259 
898, 7602.8581861619 
899, 7370.20259960782 
900, 7204.18351820397 
901, 7103.60120362647 
902, 7051.01854652957 
903, 7023.40892595285 
904, 6996.29870943538 
905, 6954.15251938296 
906, 6876.56647554054 
907, 6752.22564364841 
908, 6585.00407833294 
909, 6412.46251812267 
910, 6265.02815308516 
911, 6154.96983431863 
912, 6076.71760038773 
913, 6010.30964615301 
914, 5947.44761618705 
915, 5883.59235538085 
916, 5819.73591910976 
917, 5773.50209080275 
918, 5735.30555841535 
919, 5698.98721891347 
920, 5662.3019311583 
921, 5620.72585329785 
922, 5565.7665051621 
923, 5489.1337447637 
924, 5384.42426386181 
925, 5250.95393848431 
926, 5091.81207195544 
927, 4903.1991794449 
928, 4677.25177533703 
929, 4410.78070876748 
930, 4114.39355034087 
931, 3802.29187013598 
932, 3494.3290187792 
933, 3225.47709652668 
934, 3009.74554491644 
935, 2859.57104545053 
936, 2780.30823422693 
937, 2757.36669633666 
938, 2770.4412150932 
939, 2797.51193665109 
940, 2820.83039440735 
941, 2838.88592992649 
942, 2841.52862003899 
943, 2816.49462803551 
944, 2759.32905902656 
945, 2687.7141205307 
946, 2630.21809337893 
947, 2594.98913583442 
948, 2577.37312709249 
949, 2567.46222505218 
950, 2559.02912983434 
951, 2548.22558561995 
952, 2534.09441999106 
953, 2518.95034385574 
954, 2501.81694053986 
955, 2485.07276408798 
956, 2471.49321848617 
957, 2462.54295706068 
958, 2455.02889030049 
959, 2448.31902665127 
960, 2443.37733864813 
961, 2442.16820426321 
962, 2440.11596581654 
963, 2439.80024693633 
964, 2441.45361382387 
965, 2441.1700501644 
966, 2438.79890282414 
967, 2430.94491067258 
968, 2417.6795140843 
969, 2401.91085522355 
970, 2381.51877746295 
971, 2354.85149505211 
972, 2321.0040467772 
973, 2280.18345749703 
974, 2234.124737883 
975, 2186.66251888091 
976, 2140.3409516718 
977, 2097.51779351205 
978, 2063.13247788117 
979, 2032.16239756196 
980, 2004.24305961252 
981, 1978.84226351636 
982, 1951.21240962002 
983, 1922.50218123557 
984, 1894.06492457301 
985, 1865.57010985427 
986, 1834.01727661048 
987, 1797.69996057476 
988, 1760.60842443529 
989, 1723.97363188872 
990, 1685.47578838297 
991, 1649.0893225141 
992, 1611.91184708589 
993, 1574.49416780933 
994, 1539.28709175354 
995, 1503.25713358595 
996, 1466.13217080914 
997, 1427.90666836403 
998, 1389.46785711588 
999, 1353.73513022817 
1000, 1318.58619727972 
1001, 8141.39766719255 
1002, 8113.00855895277 
1003, 8086.6081865705 
1004, 8068.96857606203 
1005, 8054.15713772136 
1006, 8044.35234366565 
1007, 8044.00765670153 
1008, 8052.78520798741 
1009, 8069.96198599675 
1010, 8104.53133538958 
1011, 8132.07491101381 
1012, 8164.44367788824 
1013, 8193.48861651507 
1014, 8222.49286734787 
1015, 8250.9941703853 
1016, 8283.66575157163 
1017, 8322.14440865482 
1018, 8358.63901497223 
1019, 8397.53611920197 
1020, 8442.0888460943 
1021, 8485.83031557697 
1022, 8531.50185188442 
1023, 8580.50995276546 
1024, 8628.00318918781 
1025, 8676.06541532281 
1026, 8733.20185523118 
1027, 8787.48703804448 
1028, 8839.71321662185 
1029, 8888.80667008159 
1030, 8925.88532534578 
1031, 8955.73729864572 
1032, 8985.62862346678 
1033, 9021.22517793343 
1034, 9058.81940472805 
1035, 9095.63506778628 
1036, 9136.91266757158 
1037, 9177.60271753951 
1038, 9209.08910379214 
1039, 9235.47860380915 
1040, 9264.20869040702 
1041, 9283.73171174813 
1042, 9302.8525046159 
1043, 9336.11291204509 
1044, 9360.38018982483 
1045, 9380.56081165471 
1046, 9409.33835375901 
1047, 9438.60133059321 
1048, 9462.75409462656 
1049, 9492.68911161058 
1050, 9529.40660350513 
1051, 9559.17416277639 
1052, 9584.28575316586 
1053, 9612.30397057638 
1054, 9646.64404057791 
1055, 9682.29078278203 
1056, 9721.13237935511 
1057, 9765.28584958259 
1058, 9812.93304143878 
1059, 9866.99940783576 
1060, 9927.53664565223 
1061, 9996.45530437287 
1062, 10068.6320947215 
1063, 10143.5075636434 
1064, 10226.7239951457 
1065, 10322.0544923091 
1066, 10417.1130333992 
1067, 10522.7598394722 
1068, 10639.2604219152 
1069, 10764.6718893111 
1070, 10901.0722724398 
1071, 11042.8314526047 
1072, 11185.9973064166 
1073, 11329.8037799586 
1074, 11480.0738289452 
1075, 11618.612041384 
1076, 11755.3080423184 
1077, 11890.3174955362 
1078, 12005.9436305726 
1079, 12105.5473435929 
1080, 12196.6926029151 
1081, 12276.4618009108 
1082, 12351.6058085745 
1083, 12426.2820550711 
1084, 12497.3358467967 
1085, 12566.6281109993 
1086, 12629.2744383983 
1087, 12692.8734815901 
1088, 12739.8331283915 
1089, 12780.0840330121 
1090, 12806.3985335287 
1091, 12819.6973765574 
1092, 12821.7495265191 
1093, 12811.7175741495 
1094, 12791.4265147678 
1095, 12762.905467866 
1096, 12729.3144709345 
1097, 12693.9044315471 
1098, 12655.6102632511 
1099, 12623.7773954779 
1100, 12593.8930018443 
1101, 12564.0948530485 
1102, 12548.6610552599 
1103, 12512.7009142304 
1104, 12475.499973854 
1105, 12421.1336237919 
1106, 12353.2755546562 
1107, 12250.9565391402 
1108, 12100.5459635184 
1109, 11905.7011555033 
1110, 11638.0970933622 
1111, 11308.3363270609 
1112, 10928.2186587632 
1113, 10470.5222433729 
1114, 10009.8646452539 
1115, 9467.43879552258 
1116, 8985.81231335734 
1117, 8465.76322205139 
1118, 8027.87500485085 
1119, 7630.07636280595 
1120, 7269.56573663851 
1121, 6970.5974508264 
1122, 6729.15221652724 
1123, 6556.08094531005 
1124, 6439.68326558042 
1125, 6388.10743403074 
1126, 6428.69805817831 
1127, 6464.4188388121 
1128, 6558.61875119835 
1129, 6649.30758548852 
1130, 6765.96629404269 
1131, 6880.74265897591 
1132, 6998.12201156801 
1133, 7141.21624609267 
1134, 7289.59073910436 
1135, 7454.78766154213 
1136, 7695.67054630585 
1137, 7941.31487356016 
1138, 8185.31055269684 
1139, 8413.76343751563 
1140, 8562.26189862426 
1141, 8667.90014086069 
1142, 8708.95666028637 
1143, 8656.32543136669 
1144, 8630.58669468151 
1145, 8496.14899723285 
1146, 8486.5607091237 
1147, 8493.82162697443 
1148, 8578.00440194938 
1149, 8744.34760034981 
1150, 8949.49138883578 
1151, 9215.37018489402 
1152, 9519.39052513075 
1153, 9833.49184497987 
1154, 10202.7206027506 
1155, 10541.592296782 
1156, 10896.1407419219 
1157, 11225.144566921 
1158, 11556.9013764356 
1159, 11855.2290633949 
1160, 12140.6108700825 
1161, 12395.0189190257 
1162, 12623.2527351996 
1163, 12828.6656790173 
1164, 13009.3332741541 
1165, 13163.1044822405 
1166, 13300.1401955003 
1167, 13411.8427830426 
1168, 13494.3316387625 
1169, 13552.3463001502 
1170, 13583.9289623111 
1171, 13579.4199617593 
1172, 13567.2145177752 
1173, 13530.7958364696 
1174, 13485.653226385 
1175, 13418.5493794727 
1176, 13352.7181808337 
1177, 13273.9683474085 
