Wavelength,0212202100081.asd
350, 505.293273575865 
351, 531.560117925522 
352, 556.625711231042 
353, 577.9396294439 
354, 597.97001964206 
355, 618.378067886543 
356, 640.027692900127 
357, 662.103736622232 
358, 684.626713690185 
359, 708.844689178671 
360, 736.69291358817 
361, 769.990447510342 
362, 807.720033994811 
363, 847.808517143601 
364, 887.750544480243 
365, 931.056790984983 
366, 972.770804807452 
367, 1007.91899630765 
368, 1034.5239607656 
369, 1052.08247655161 
370, 1059.28303893672 
371, 1056.81568663352 
372, 1051.72796788613 
373, 1049.89553324144 
374, 1052.05409116171 
375, 1055.11314892544 
376, 1056.93741072672 
377, 1059.28115732857 
378, 1059.98375120115 
379, 1051.21410653705 
380, 1039.01827407316 
381, 1024.43865421676 
382, 1007.5816141806 
383, 989.052120842516 
384, 969.397959486096 
385, 955.387962132431 
386, 955.98032860839 
387, 974.179179278986 
388, 1002.59317968103 
389, 1029.48298789674 
390, 1041.2008450598 
391, 1052.85519459812 
392, 1064.49737695692 
393, 1074.25679054966 
394, 1080.63398991722 
395, 1102.09621598444 
396, 1146.78828971242 
397, 1217.08091479548 
398, 1312.65951449889 
399, 1421.64378264202 
400, 1534.29699439013 
401, 1643.82823390159 
402, 1749.11672302756 
403, 1835.96595461906 
404, 1897.60534180596 
405, 1943.39968255251 
406, 1982.23395693705 
407, 2017.97406994973 
408, 2054.69050223317 
409, 2106.34181419388 
410, 2167.56948801185 
411, 2234.06731139125 
412, 2303.01699996363 
413, 2374.29242321049 
414, 2445.37370309824 
415, 2512.41987857981 
416, 2569.58963051414 
417, 2623.46581080212 
418, 2679.9911233939 
419, 2740.88918885848 
420, 2792.53172626437 
421, 2844.45500138274 
422, 2901.52680547621 
423, 2963.51825020076 
424, 3021.96443248279 
425, 3068.33321551229 
426, 3095.13686076328 
427, 3095.53664377764 
428, 3084.88098468959 
429, 3088.63657740109 
430, 3126.2697197688 
431, 3183.20953546138 
432, 3256.67271775667 
433, 3364.38551328441 
434, 3531.26278885381 
435, 3707.16384042475 
436, 3841.47271313038 
437, 3924.19057487856 
438, 4010.79387557449 
439, 4100.93124344842 
440, 4186.98937374052 
441, 4265.11467851419 
442, 4364.82631764198 
443, 4470.40572901777 
444, 4567.45715853236 
445, 4645.22190144369 
446, 4709.18243177386 
447, 4766.82880070622 
448, 4827.27775447354 
449, 4903.67660953845 
450, 4968.36023466325 
451, 5003.02938110935 
452, 5001.14446747383 
453, 4989.02406146463 
454, 4962.50826559686 
455, 4928.52741577582 
456, 4904.37736923378 
457, 4901.26454368889 
458, 4904.27895432854 
459, 4899.89748589956 
460, 4888.41769983735 
461, 4871.99677855215 
462, 4853.21626922944 
463, 4832.62261853784 
464, 4800.65253761469 
465, 4753.04010117486 
466, 4694.74468314179 
467, 4639.56611932617 
468, 4593.9773874077 
469, 4559.04331720928 
470, 4535.49813653357 
471, 4529.30920167587 
472, 4525.52208206944 
473, 4525.54450091066 
474, 4535.25533818141 
475, 4534.43414672696 
476, 4529.915540683 
477, 4527.61075218602 
478, 4529.08921262125 
479, 4545.55319751457 
480, 4567.95987636819 
481, 4582.30703922293 
482, 4580.22822415225 
483, 4547.16446464627 
484, 4476.21418469283 
485, 4371.01465864516 
486, 4265.45077389711 
487, 4190.87366654573 
488, 4170.93094806351 
489, 4220.92414490683 
490, 4299.10801886852 
491, 4363.35739673912 
492, 4386.67845629945 
493, 4395.78978242476 
494, 4408.01490716383 
495, 4432.21989098901 
496, 4467.03478652897 
497, 4479.08739779395 
498, 4467.05798034821 
499, 4438.31700945416 
500, 4403.10396798518 
501, 4375.05463890171 
502, 4362.79372151958 
503, 4372.29125193355 
504, 4412.5875832457 
505, 4469.20954747566 
506, 4527.3218286116 
507, 4574.17759345432 
508, 4609.64880547593 
509, 4636.82965426264 
510, 4661.58287174113 
511, 4695.67436210783 
512, 4719.52524339836 
513, 4723.96018199492 
514, 4706.74936568959 
515, 4669.87166460082 
516, 4618.85317155576 
517, 4567.12495087356 
518, 4536.92557778531 
519, 4576.32789026131 
520, 4686.91949715878 
521, 4839.95061549606 
522, 4967.97362577297 
523, 5064.852134521 
524, 5133.88260876477 
525, 5184.68557570802 
526, 5208.8167177473 
527, 5217.98233771186 
528, 5242.51377584665 
529, 5348.2966762679 
530, 5485.40238215495 
531, 5600.29231307015 
532, 5650.34370953895 
533, 5666.85192864625 
534, 5691.92924144062 
535, 5748.44842365938 
536, 5835.15220469217 
537, 5897.23286333317 
538, 5925.35893452327 
539, 5928.25922860169 
540, 5926.72639197289 
541, 5930.42814862387 
542, 5958.62141759485 
543, 6028.6476919367 
544, 6107.68201316628 
545, 6176.34584731743 
546, 6224.71659625309 
547, 6253.98041672689 
548, 6271.54150627394 
549, 6290.68968001926 
550, 6321.25267685633 
551, 6353.95938936095 
552, 6379.22685007672 
553, 6397.60303355758 
554, 6417.51422702246 
555, 6433.46020706799 
556, 6427.80471166385 
557, 6391.14681741288 
558, 6332.22998364362 
559, 6281.71119666247 
560, 6258.30496566522 
561, 6268.9473846788 
562, 6296.40357562964 
563, 6314.04202547057 
564, 6306.97253714203 
565, 6275.42588992518 
566, 6229.85660194339 
567, 6184.83492736867 
568, 6148.71283543247 
569, 6109.98921859787 
570, 6058.80197323272 
571, 6009.98540082202 
572, 5991.53991299423 
573, 5996.74173140413 
574, 5997.10812785516 
575, 5972.42783082391 
576, 5919.42686488099 
577, 5872.29432787097 
578, 5847.76034910352 
579, 5852.54424959219 
580, 5881.26607004002 
581, 5933.52640566519 
582, 5997.02053718431 
583, 6048.88460249512 
584, 6082.27533287033 
585, 6080.08807125811 
586, 6039.68651785509 
587, 5994.28743524179 
588, 5936.69879444482 
589, 5857.02098233253 
590, 5756.87638255353 
591, 5718.89647946792 
592, 5744.23978754171 
593, 5794.0683480401 
594, 5791.01908133685 
595, 5758.25807323191 
596, 5714.77043081379 
597, 5673.43346974363 
598, 5623.39695225402 
599, 5563.67064936779 
600, 5499.60210140063 
601, 5441.26105188414 
602, 5395.73933267501 
603, 5370.34215226412 
604, 5364.36780176499 
605, 5365.71188923198 
606, 5352.55377716695 
607, 5322.43852701271 
608, 5282.58207108565 
609, 5242.65097783909 
610, 5204.89415332106 
611, 5170.67641164317 
612, 5140.43695785962 
613, 5107.5447608704 
614, 5071.50073485203 
615, 5034.71732148049 
616, 5001.78962750555 
617, 4981.15273624321 
618, 4979.85798983473 
619, 4999.26102497402 
620, 5017.54480413574 
621, 5017.54229498293 
622, 4992.25137436776 
623, 4946.55999766635 
624, 4896.07303444577 
625, 4849.19890764873 
626, 4809.07371651609 
627, 4770.84563080768 
628, 4734.73417738607 
629, 4701.69153954126 
630, 4674.99761179655 
631, 4672.995285102 
632, 4684.87302363813 
633, 4700.82576493295 
634, 4719.92872969798 
635, 4733.68436142142 
636, 4741.13901756654 
637, 4744.08288580969 
638, 4744.04698273885 
639, 4732.93310566611 
640, 4707.82390789893 
641, 4671.80442219573 
642, 4641.78609833107 
643, 4620.56579478891 
644, 4604.71539543743 
645, 4585.25759338557 
646, 4553.87553267733 
647, 4513.81701745847 
648, 4473.9363837456 
649, 4440.58869710016 
650, 4414.4016801138 
651, 4399.900091475 
652, 4404.1076126133 
653, 4392.21420550074 
654, 4340.14663585534 
655, 4244.55105631845 
656, 4137.53074288742 
657, 4057.16763691558 
658, 4053.03548711554 
659, 4154.31222667069 
660, 4257.84660259371 
661, 4315.36166484922 
662, 4323.85731383832 
663, 4327.35163257785 
664, 4322.15222598847 
665, 4314.12102824718 
666, 4308.74978336932 
667, 4308.37361987961 
668, 4305.00491413348 
669, 4298.90317579698 
670, 4293.91713385433 
671, 4282.62551235748 
672, 4269.41847192158 
673, 4260.66967854949 
674, 4263.54541969143 
675, 4267.6048573865 
676, 4269.83209531666 
677, 4270.04983155294 
678, 4270.27066214611 
679, 4269.17922435637 
680, 4266.90678765088 
681, 4264.19462231398 
682, 4260.85595704619 
683, 4249.08410757758 
684, 4211.06212389381 
685, 4117.06399055034 
686, 3948.81454061189 
687, 3721.88511511887 
688, 3492.77282204612 
689, 3397.39096706077 
690, 3465.84256833695 
691, 3634.79939734855 
692, 3785.95230675221 
693, 3919.29164058762 
694, 4016.02944158619 
695, 4073.6019565245 
696, 4112.03663261078 
697, 4142.76259450447 
698, 4161.6630108476 
699, 4162.71712082999 
700, 4151.12928916543 
701, 4137.77480653539 
702, 4133.46168877923 
703, 4146.96917410181 
704, 4175.79368532249 
705, 4210.84376477681 
706, 4240.94339911566 
707, 4253.52361227955 
708, 4265.93973060035 
709, 4277.60998668279 
710, 4285.43351590134 
711, 4295.06612672265 
712, 4300.91356107652 
713, 4300.6848286625 
714, 4292.72256342481 
715, 4268.23313209569 
716, 4212.28657330937 
717, 4117.24355054588 
718, 3985.84380299328 
719, 3873.63075770857 
720, 3830.37085090011 
721, 3876.08564867712 
722, 3971.61352470824 
723, 4039.26585210656 
724, 4049.86346498319 
725, 4015.62875909685 
726, 4008.78047393508 
727, 4019.92996311936 
728, 4034.59625853208 
729, 4042.38312235617 
730, 4067.35730021378 
731, 4113.31028806794 
732, 4175.82398154851 
733, 4245.014889706 
734, 4304.89033849215 
735, 4342.66708333347 
736, 4352.35457835916 
737, 4345.85368863973 
738, 4337.920572041 
739, 4330.46063934171 
740, 4315.47249909063 
741, 4308.2113371554 
742, 4310.28480640073 
743, 4319.92508925124 
744, 4334.49376963656 
745, 4340.28904550647 
746, 4339.37424474742 
747, 4336.40045057297 
748, 4325.13321871502 
749, 4306.38156535199 
750, 4282.47463756707 
751, 4257.56128923727 
752, 4240.40362899606 
753, 4230.1003630713 
754, 4222.04038188673 
755, 4208.52159402629 
756, 4180.86199440548 
757, 4088.23644502855 
758, 3850.13043930002 
759, 3333.69684402079 
760, 2572.08344671784 
761, 1822.84621711254 
762, 1400.22572927348 
763, 1394.15387235336 
764, 1607.980493353 
765, 1939.69063106885 
766, 2374.96061603051 
767, 2850.35955664187 
768, 3259.10685554575 
769, 3536.2552841874 
770, 3684.60498075762 
771, 3751.88081604981 
772, 3770.52626438127 
773, 3764.71298727585 
774, 3749.16373674292 
775, 3727.91187361645 
776, 3704.70476456839 
777, 3681.06482483398 
778, 3652.31888751776 
779, 3621.20061943388 
780, 3590.17382757927 
781, 3560.88703464926 
782, 3534.12519603037 
783, 3504.86025593516 
784, 3471.75268025694 
785, 3440.29469945254 
786, 3408.53525300713 
787, 3374.49505915641 
788, 3336.19039994703 
789, 3291.52198047157 
790, 3245.25600205899 
791, 3199.13724882925 
792, 3153.64257978786 
793, 3109.18425675996 
794, 3072.78888893764 
795, 3047.88593986338 
796, 3033.52465801859 
797, 3021.89685772514 
798, 3005.6255622241 
799, 2981.14719551781 
800, 2949.80339867674 
801, 2916.99022812387 
802, 2886.68701150689 
803, 2860.440661343 
804, 2835.65547350079 
805, 2814.23013379973 
806, 2794.45448602518 
807, 2773.18729916011 
808, 2747.46900046377 
809, 2715.99317631933 
810, 2680.96479249849 
811, 2645.11558178604 
812, 2602.96294954416 
813, 2545.19420869791 
814, 2471.1537406642 
815, 2389.56830503617 
816, 2314.01337099656 
817, 2253.59615562638 
818, 2215.63263602396 
819, 2205.95881909482 
820, 2203.85736271514 
821, 2198.82436788007 
822, 2186.71244700567 
823, 2169.73866696639 
824, 2158.52827244655 
825, 2162.17405603814 
826, 2178.95767313172 
827, 2176.31598715739 
828, 2155.33351126514 
829, 2126.38694509776 
830, 2103.30988771138 
831, 2087.75585487915 
832, 2076.08392444846 
833, 2066.37039522146 
834, 2058.85198771689 
835, 2056.29446511524 
836, 2053.98314554362 
837, 2048.11740721451 
838, 2037.37061446688 
839, 2022.70419897391 
840, 2003.55785527121 
841, 1980.60740682127 
842, 1956.80604816361 
843, 1932.47891264586 
844, 1908.93236130522 
845, 1886.14462233581 
846, 1860.9598309162 
847, 1832.21954311899 
848, 1798.11772214328 
849, 1758.64932721062 
850, 1719.86191731582 
851, 1676.55464564673 
852, 1631.74778597683 
853, 1592.08604399275 
854, 1560.92673053466 
855, 1533.75448106277 
856, 1516.39132401209 
857, 1518.08139733272 
858, 1527.91860487294 
859, 1525.05943912465 
860, 1505.38981466083 
861, 1480.2979102578 
862, 1454.31928899085 
863, 1421.21900087828 
864, 1381.50867285553 
865, 1344.30699988794 
866, 1306.91027716035 
867, 1273.75144259955 
868, 1249.90509728093 
869, 1239.14230963395 
870, 1231.5291790349 
871, 1221.07012217605 
872, 1204.45178063029 
873, 1181.28320706814 
874, 1158.07350486809 
875, 1134.89551789045 
876, 1111.28498359108 
877, 1089.76758686353 
878, 1068.77333551834 
879, 1047.10074935863 
880, 1024.42577827909 
881, 1002.15660299472 
882, 983.222253996576 
883, 965.436020236278 
884, 946.341129432832 
885, 929.455154620526 
886, 911.246090062523 
887, 891.792829488932 
888, 872.757854020583 
889, 855.262162897288 
890, 839.036126115404 
891, 822.233918384456 
892, 802.330298162743 
893, 777.226872480288 
894, 750.358878407053 
895, 722.297953137768 
896, 692.675110292551 
897, 665.162781212341 
898, 637.980665723552 
899, 614.286931917896 
900, 598.882489034838 
901, 588.448034877478 
902, 583.67015720991 
903, 581.532103359027 
904, 577.382167012763 
905, 572.106360285998 
906, 565.484295119671 
907, 555.25705499748 
908, 539.261934928852 
909, 522.898789490116 
910, 509.935279357786 
911, 500.49719914084 
912, 492.397578730762 
913, 486.656700656141 
914, 481.960039095018 
915, 477.177973838739 
916, 471.827808336862 
917, 467.107943277342 
918, 463.745941840579 
919, 460.812831866838 
920, 456.82884181586 
921, 454.465908062696 
922, 451.623007190425 
923, 445.845227302161 
924, 435.718210645826 
925, 424.788123709605 
926, 412.410683911683 
927, 396.997486213632 
928, 377.323737876265 
929, 356.483092594193 
930, 330.709954813772 
931, 302.480135673385 
932, 277.563726846781 
933, 255.625944266784 
934, 235.910432742707 
935, 221.648148823063 
936, 216.130398022374 
937, 212.681279563262 
938, 212.580180136998 
939, 215.161798432397 
940, 218.347616336811 
941, 219.482604595798 
942, 218.87707891287 
943, 216.623326829511 
944, 212.546417263381 
945, 205.431257893186 
946, 200.628214138231 
947, 197.755789903268 
948, 194.846087108964 
949, 192.957468338789 
950, 191.184064608813 
951, 190.284557905179 
952, 190.426317446348 
953, 189.220376416264 
954, 185.597093978696 
955, 182.038368260466 
956, 180.473168787356 
957, 179.591353529418 
958, 178.096064322073 
959, 175.902964725492 
960, 173.95226583488 
961, 173.820204992779 
962, 171.419894321467 
963, 169.218537319927 
964, 168.100912394538 
965, 165.870744527944 
966, 164.159613637489 
967, 163.293743794306 
968, 161.925308058186 
969, 158.041700398856 
970, 153.920222662269 
971, 150.183985801074 
972, 146.297457388647 
973, 141.4154281937 
974, 136.628548738713 
975, 132.026973865386 
976, 127.059638969613 
977, 121.873661219801 
978, 120.327601685005 
979, 115.173538335278 
980, 109.547453631435 
981, 107.221125118719 
982, 104.090024028644 
983, 101.35681758129 
984, 97.9887226114487 
985, 94.1071114687079 
986, 92.0618992738193 
987, 87.7369251630439 
988, 84.1855583203249 
989, 81.9230680631887 
990, 77.9724471068887 
991, 75.3099988066489 
992, 72.1289128843252 
993, 68.8887605630181 
994, 67.2070073376735 
995, 64.7017400500548 
996, 61.5357910188181 
997, 58.1220745422797 
998, 54.9649161288436 
999, 52.471679397284 
1000, 51.1734107039548 
1001, 306.718136586307 
1002, 303.567112011717 
1003, 290.114532788942 
1004, 279.658805205503 
1005, 272.968056208592 
1006, 263.734295284582 
1007, 263.513708013186 
1008, 263.971221691325 
1009, 261.440572083974 
1010, 263.529179604588 
1011, 262.70483116763 
1012, 257.924550899832 
1013, 249.339742576985 
1014, 245.602582299167 
1015, 239.475119149619 
1016, 230.381615474382 
1017, 224.406603659483 
1018, 228.555969873423 
1019, 233.242445412221 
1020, 240.067494243736 
1021, 249.485022273125 
1022, 250.81407891159 
1023, 244.695167085386 
1024, 242.157137698455 
1025, 239.000451119784 
1026, 231.64067366741 
1027, 236.792907929172 
1028, 242.578632960547 
1029, 239.554753520182 
1030, 239.236853390326 
1031, 240.280673914547 
1032, 235.17440284254 
1033, 233.601837783785 
1034, 240.495608639976 
1035, 242.971948415925 
1036, 243.332000834064 
1037, 242.319735565436 
1038, 245.087997197982 
1039, 245.096486186911 
1040, 247.874265669429 
1041, 252.717638175679 
1042, 253.967659263706 
1043, 252.795808066114 
1044, 257.447097073483 
1045, 267.124247726106 
1046, 276.011733694529 
1047, 280.758698928315 
1048, 286.80369994718 
1049, 284.454435949429 
1050, 283.183793942738 
1051, 286.240104505586 
1052, 290.297766262676 
1053, 300.303062167701 
1054, 310.943478799747 
1055, 321.001569820502 
1056, 330.840614495397 
1057, 341.020090659269 
1058, 351.101483188488 
1059, 354.043431999073 
1060, 360.225269398174 
1061, 372.379499189444 
1062, 378.842459870348 
1063, 380.326126678347 
1064, 385.864373136053 
1065, 390.924984149444 
1066, 389.585360996629 
1067, 399.850692732265 
1068, 417.071329453085 
1069, 432.591664516918 
1070, 454.358175775069 
1071, 469.542972609124 
1072, 475.245454075995 
1073, 487.084025249386 
1074, 500.03683378545 
1075, 511.869466105963 
1076, 525.403927209192 
1077, 540.338294176757 
1078, 548.826889074162 
1079, 554.004695543533 
1080, 553.778624103856 
1081, 554.596999147974 
1082, 557.286493400681 
1083, 557.571560065227 
1084, 558.907055640683 
1085, 560.615092311345 
1086, 564.961678407167 
1087, 571.760950632176 
1088, 576.306990385875 
1089, 583.182429159602 
1090, 587.250202428834 
1091, 590.409086728693 
1092, 587.130807019833 
1093, 583.073524554563 
1094, 582.770031756404 
1095, 581.048758212518 
1096, 579.083837013879 
1097, 574.130104293153 
1098, 572.52221794209 
1099, 569.991196921586 
1100, 561.873009769858 
1101, 560.013452478927 
1102, 566.195882309994 
1103, 564.216842414521 
1104, 560.858699489244 
1105, 558.822879259382 
1106, 544.63286680485 
1107, 527.733862553398 
1108, 512.868704036418 
1109, 499.164746431255 
1110, 489.592604754932 
1111, 479.404164299957 
1112, 462.066680285567 
1113, 439.069275948672 
1114, 415.414543419671 
1115, 382.95887844441 
1116, 360.750011457225 
1117, 343.317690764287 
1118, 324.616008832046 
1119, 310.777176899082 
1120, 291.333650792391 
1121, 273.165432834776 
1122, 262.33254120281 
1123, 256.840581299395 
1124, 253.521266912896 
1125, 251.126145362619 
1126, 250.961557515345 
1127, 251.391063538012 
1128, 251.856964533136 
1129, 258.164313208849 
1130, 272.208115304032 
1131, 278.186848733297 
1132, 284.553397184038 
1133, 289.765800430928 
1134, 290.794327276216 
1135, 290.312545691791 
1136, 291.618383766296 
1137, 294.401130186459 
1138, 297.855781729679 
1139, 302.119616500811 
1140, 305.736545130766 
1141, 315.036667486267 
1142, 315.577287123436 
1143, 310.60807577879 
1144, 306.111160091592 
1145, 294.359431467728 
1146, 289.573253607069 
1147, 286.499106319636 
1148, 284.551324464878 
1149, 286.192926772927 
1150, 288.596741217303 
1151, 290.66623616596 
1152, 299.816721744256 
1153, 305.99561150003 
1154, 315.833334391578 
1155, 321.319163763472 
1156, 326.701706316633 
1157, 326.162412710626 
1158, 320.226686284027 
1159, 317.499762237318 
1160, 309.008913100887 
1161, 306.512298452362 
1162, 311.726725196727 
1163, 311.790576919102 
1164, 312.966321779028 
1165, 310.282384088628 
1166, 303.841974331053 
1167, 294.813886254611 
1168, 289.487959015082 
1169, 285.536391096298 
1170, 277.071161067439 
1171, 269.240447263512 
1172, 259.58738148785 
1173, 241.588520608198 
1174, 233.048596889096 
1175, 231.84945647829 
1176, 224.950215802631 
