Wavelength,0212202100030.asd
350, 3846.06349267979 
351, 4044.14926954637 
352, 4226.48372743013 
353, 4382.11744533389 
354, 4536.07908851014 
355, 4699.14242603946 
356, 4872.62640208988 
357, 5043.18822544083 
358, 5219.13424864017 
359, 5408.20582275892 
360, 5620.33345600957 
361, 5876.91223516244 
362, 6167.81490965906 
363, 6479.82057699925 
364, 6799.70670316317 
365, 7123.19713036922 
366, 7431.07975004652 
367, 7699.24192634871 
368, 7900.34151002812 
369, 8018.92284860087 
370, 8062.31122700936 
371, 8053.91265634757 
372, 8029.52834586012 
373, 8024.4787416616 
374, 8043.10810371856 
375, 8067.59580257319 
376, 8096.10497776638 
377, 8111.41423203458 
378, 8093.50159626752 
379, 8021.7141676399 
380, 7927.40630502619 
381, 7821.80142673353 
382, 7705.75555728214 
383, 7563.53763071798 
384, 7419.91098730377 
385, 7325.9755051371 
386, 7341.19318622577 
387, 7499.72088527751 
388, 7712.34703684205 
389, 7893.25998926416 
390, 7981.52174141072 
391, 8081.12125961843 
392, 8173.91512467159 
393, 8243.11537011883 
394, 8316.0816871189 
395, 8508.35701202244 
396, 8870.61913669918 
397, 9418.39373408222 
398, 10165.5989713204 
399, 11013.1108479954 
400, 11885.0732035745 
401, 12733.5840605921 
402, 13527.962968765 
403, 14182.9065828276 
404, 14665.0507026899 
405, 15043.3830281222 
406, 15345.0684767799 
407, 15617.8200677064 
408, 15919.6599504878 
409, 16326.7248054904 
410, 16809.4158667044 
411, 17339.3065133682 
412, 17891.0739081025 
413, 18439.98792327 
414, 18981.5082200017 
415, 19500.9474794781 
416, 19957.8734527638 
417, 20398.2002441585 
418, 20849.5936194463 
419, 21314.5794384909 
420, 21720.8947919816 
421, 22136.513330359 
422, 22590.2247456426 
423, 23070.3860733003 
424, 23509.666716707 
425, 23857.2108716817 
426, 24063.5297663295 
427, 24069.1725986935 
428, 23988.2506172968 
429, 24030.8336284005 
430, 24353.9420061651 
431, 24800.9043789111 
432, 25400.210928901 
433, 26279.7443611796 
434, 27581.2654895202 
435, 28921.213812369 
436, 29945.5660147997 
437, 30597.0667212143 
438, 31287.576394361 
439, 31995.6050907473 
440, 32668.2853213786 
441, 33286.550835911 
442, 34071.2066112549 
443, 34886.5161837575 
444, 35632.40373878 
445, 36252.5141163352 
446, 36751.8168721625 
447, 37204.2822376681 
448, 37687.563815161 
449, 38279.3318525656 
450, 38764.1330282183 
451, 39016.2144136765 
452, 39000.8587995111 
453, 38904.9041241214 
454, 38695.5791409068 
455, 38432.406983439 
456, 38257.5921011671 
457, 38220.5412575088 
458, 38235.9948352989 
459, 38215.4075432884 
460, 38121.7334024041 
461, 37979.6433997456 
462, 37823.6505201191 
463, 37669.4796399815 
464, 37417.8048187409 
465, 37033.924579503 
466, 36566.7669148505 
467, 36142.9236374209 
468, 35784.4981835586 
469, 35521.2625762537 
470, 35367.8224027991 
471, 35320.8905776299 
472, 35292.8690060854 
473, 35293.4949161335 
474, 35358.5971849243 
475, 35356.6919962516 
476, 35330.7928168678 
477, 35322.741935 
478, 35351.9050300799 
479, 35475.4205934087 
480, 35639.3925607295 
481, 35749.3705901285 
482, 35708.2804812355 
483, 35424.5772640253 
484, 34847.7478088458 
485, 34003.6614573629 
486, 33210.1191931471 
487, 32665.4894944725 
488, 32527.0276769104 
489, 32937.2215854183 
490, 33548.0092277715 
491, 34039.5122706515 
492, 34216.2271771183 
493, 34283.4832963614 
494, 34389.0949313 
495, 34594.3905165814 
496, 34865.4110537211 
497, 34946.5446396113 
498, 34845.8561066714 
499, 34625.4824361846 
500, 34332.715303451 
501, 34122.2394850989 
502, 34052.4318245677 
503, 34144.0193602418 
504, 34485.9993401922 
505, 34945.9890352312 
506, 35399.8248255247 
507, 35754.4441571084 
508, 36024.7437735127 
509, 36239.0395084158 
510, 36441.1105817098 
511, 36715.0093689433 
512, 36898.5929021954 
513, 36926.1336470722 
514, 36790.8602474579 
515, 36479.9962360813 
516, 36065.3874351635 
517, 35669.5702593934 
518, 35459.2044736809 
519, 35795.5277404003 
520, 36693.9621187135 
521, 37929.8353933817 
522, 38943.6976250368 
523, 39697.2120399893 
524, 40227.3340000293 
525, 40618.9789138892 
526, 40782.0993100966 
527, 40853.3759586051 
528, 41089.0010515747 
529, 41949.7582810831 
530, 43046.3081075192 
531, 43946.7252261763 
532, 44312.1582623437 
533, 44436.8819467265 
534, 44650.50435951 
535, 45117.8812741894 
536, 45804.266391909 
537, 46284.4472546681 
538, 46498.3473600695 
539, 46523.3709344048 
540, 46509.5985277155 
541, 46562.3463918971 
542, 46821.3595055864 
543, 47391.038307271 
544, 48028.1198671063 
545, 48573.9666304762 
546, 48948.0537220087 
547, 49164.8577695228 
548, 49309.7860388988 
549, 49482.9308222419 
550, 49745.8907618204 
551, 50013.1624962559 
552, 50215.6808182682 
553, 50363.6556083024 
554, 50527.5165115038 
555, 50655.415069605 
556, 50611.2847161952 
557, 50323.4071152529 
558, 49855.3793772473 
559, 49466.3006321403 
560, 49306.1450707845 
561, 49422.7772633713 
562, 49667.4321384091 
563, 49807.42261759 
564, 49733.9937915782 
565, 49494.1880592874 
566, 49153.734713664 
567, 48817.9858365836 
568, 48548.8612725896 
569, 48266.6658333132 
570, 47886.819277689 
571, 47526.7828494405 
572, 47411.9880718742 
573, 47492.4547751861 
574, 47502.3662981419 
575, 47280.7978963777 
576, 46877.4490463246 
577, 46516.8089437909 
578, 46332.6573803021 
579, 46389.9961354564 
580, 46637.2112724343 
581, 47065.4301271968 
582, 47579.7195201146 
583, 48007.4478209811 
584, 48266.5863945232 
585, 48242.7817308054 
586, 47930.3183453605 
587, 47566.9012291272 
588, 47128.4841895729 
589, 46522.3891646375 
590, 45740.2247008727 
591, 45532.8906214281 
592, 45805.1589114245 
593, 46199.4438407048 
594, 46145.5192329488 
595, 45890.4336178455 
596, 45549.4075748992 
597, 45189.3337706076 
598, 44791.5414566136 
599, 44305.9796930308 
600, 43779.8597156877 
601, 43326.1970791196 
602, 42972.2028833507 
603, 42790.0792416032 
604, 42779.122412317 
605, 42823.4195847204 
606, 42721.1050057966 
607, 42472.6381676697 
608, 42165.9538472305 
609, 41864.2662905699 
610, 41577.772906979 
611, 41321.6355193931 
612, 41113.5612631031 
613, 40885.7658149199 
614, 40614.2885993382 
615, 40319.5601862835 
616, 40095.7069740504 
617, 39953.4347117701 
618, 39960.8481802998 
619, 40162.9505880232 
620, 40348.5078971096 
621, 40362.7074309571 
622, 40159.5281614343 
623, 39819.2755412657 
624, 39439.0883129234 
625, 39086.6264745703 
626, 38796.5911693485 
627, 38552.0672190247 
628, 38298.610258974 
629, 38047.0911897819 
630, 37862.9117949112 
631, 37878.6004433507 
632, 38004.2041209876 
633, 38159.0871655997 
634, 38334.2299522877 
635, 38460.8779323922 
636, 38542.046196178 
637, 38598.9396425602 
638, 38619.1735944237 
639, 38554.8826874906 
640, 38373.2525161719 
641, 38072.5199254533 
642, 37850.6719111112 
643, 37728.4519404327 
644, 37654.5804837759 
645, 37508.3798859324 
646, 37279.2642380633 
647, 36997.1647220646 
648, 36716.5675688636 
649, 36480.4683551919 
650, 36283.4640869675 
651, 36170.7482633794 
652, 36225.1433993007 
653, 36138.4719058356 
654, 35722.0950898665 
655, 34946.6517091395 
656, 34020.3490826144 
657, 33367.2118816695 
658, 33412.6581344169 
659, 34349.8701597123 
660, 35194.3998465583 
661, 35649.0402351951 
662, 35737.2019171808 
663, 35780.6685649526 
664, 35736.6494850207 
665, 35676.3377329943 
666, 35659.6247774346 
667, 35667.5969905605 
668, 35652.4413668631 
669, 35618.0916155309 
670, 35590.3258138913 
671, 35512.8829237049 
672, 35422.1884874854 
673, 35367.8053630236 
674, 35402.2598434583 
675, 35447.9916924569 
676, 35478.396938041 
677, 35490.8032547434 
678, 35512.1512833767 
679, 35520.8734733733 
680, 35514.0961839087 
681, 35498.9296851549 
682, 35475.3621450082 
683, 35393.2016067964 
684, 35099.7996229472 
685, 34313.7763458404 
686, 32913.6332273517 
687, 31003.7941094622 
688, 29062.0897022835 
689, 28399.8294850987 
690, 29085.1124273864 
691, 30544.8392085272 
692, 31841.4273352176 
693, 32976.8092661533 
694, 33797.1348399709 
695, 34283.1919376384 
696, 34603.8835295596 
697, 34862.4963049587 
698, 35023.0789985609 
699, 35035.3954773944 
700, 34958.3029781859 
701, 34880.5677284705 
702, 34876.647565624 
703, 35001.295525051 
704, 35270.8287416253 
705, 35583.8391188185 
706, 35843.170120895 
707, 35981.3836618722 
708, 36095.9759733526 
709, 36199.9331840683 
710, 36288.66508694 
711, 36382.4162292783 
712, 36444.1993140712 
713, 36461.0087004681 
714, 36424.1665399327 
715, 36274.4031946659 
716, 35866.6148334995 
717, 35133.3617516871 
718, 34119.7687917956 
719, 33270.4386987393 
720, 32971.4970467059 
721, 33374.0857916693 
722, 34179.006458087 
723, 34715.5461832188 
724, 34786.3064556667 
725, 34551.5968877161 
726, 34528.1469403052 
727, 34630.5304964866 
728, 34746.9147193835 
729, 34809.2592494968 
730, 35011.4371999471 
731, 35388.3854026008 
732, 35899.7454509392 
733, 36438.5553745044 
734, 36891.3498823298 
735, 37167.1232443358 
736, 37228.0710009259 
737, 37178.245912518 
738, 37104.0902429625 
739, 37025.0041617762 
740, 36910.7607783317 
741, 36864.1444368925 
742, 36897.8848665287 
743, 36998.3017186906 
744, 37140.4961070009 
745, 37234.0693789156 
746, 37269.4085318986 
747, 37261.3867106905 
748, 37204.42279277 
749, 37074.7011083033 
750, 36900.9034387121 
751, 36747.0930162406 
752, 36669.4830140553 
753, 36647.1296339142 
754, 36639.1157413191 
755, 36591.1557462445 
756, 36410.3008081692 
757, 35653.437454291 
758, 33593.7898437072 
759, 28961.644765097 
760, 22232.3211188718 
761, 15785.0554675233 
762, 12399.2494745904 
763, 12609.5216887916 
764, 14653.0201145255 
765, 17683.8279960685 
766, 21669.9795311233 
767, 25933.5879746 
768, 29567.7297501453 
769, 32040.5580558483 
770, 33393.2438606139 
771, 34039.2555176893 
772, 34275.4700057232 
773, 34319.9181960727 
774, 34282.0515150634 
775, 34185.048852012 
776, 34066.0172884978 
777, 33949.5898304734 
778, 33795.0213180382 
779, 33616.6557420849 
780, 33441.7569820404 
781, 33298.5325144186 
782, 33138.655106153 
783, 32952.2489428269 
784, 32746.153371284 
785, 32542.246910472 
786, 32345.5846539542 
787, 32121.7913996292 
788, 31841.0565275448 
789, 31514.0839540493 
790, 31163.4937759224 
791, 30796.3387222874 
792, 30417.9196143841 
793, 30051.6402766212 
794, 29757.8273437867 
795, 29569.6468204816 
796, 29483.758944876 
797, 29419.4515197668 
798, 29299.0111833543 
799, 29088.9464642288 
800, 28812.4717129453 
801, 28520.602275322 
802, 28249.7858943718 
803, 28011.5631488472 
804, 27775.2320403298 
805, 27564.2762945465 
806, 27367.9430599017 
807, 27157.9702442906 
808, 26891.9804587164 
809, 26579.4106173436 
810, 26242.9989323328 
811, 25898.6472620358 
812, 25489.7041606694 
813, 24953.1839964095 
814, 24275.8727809462 
815, 23504.5828462281 
816, 22781.5835155041 
817, 22200.8524125167 
818, 21823.6591009345 
819, 21676.8205106647 
820, 21611.5690051862 
821, 21518.2271671397 
822, 21350.8921571629 
823, 21165.8548624747 
824, 21043.311647176 
825, 21047.5564622298 
826, 21152.8833993193 
827, 21085.8960426649 
828, 20854.0980590901 
829, 20552.3911074275 
830, 20308.0898392166 
831, 20136.1282464316 
832, 19997.3807400974 
833, 19876.3684572975 
834, 19782.0083798518 
835, 19724.1646473796 
836, 19684.6076095474 
837, 19630.5297713691 
838, 19520.9669240631 
839, 19365.571213098 
840, 19180.69333729 
841, 18981.1623486836 
842, 18774.711907498 
843, 18557.8849786658 
844, 18344.0500935248 
845, 18141.0325752183 
846, 17938.5788816605 
847, 17689.7594694959 
848, 17392.0468511916 
849, 17063.7053652054 
850, 16731.8228192339 
851, 16348.1928628507 
852, 15954.0582372603 
853, 15624.6782953181 
854, 15373.9155713255 
855, 15172.082265989 
856, 15077.7769465376 
857, 15169.9056194171 
858, 15309.4704565263 
859, 15333.5280108057 
860, 15213.2291028956 
861, 15038.5901372481 
862, 14832.0978091442 
863, 14568.5653152285 
864, 14252.4106719145 
865, 13928.7769662963 
866, 13619.28599411 
867, 13356.6300735929 
868, 13185.1307120826 
869, 13157.3982654795 
870, 13180.6652179139 
871, 13157.8014063711 
872, 13043.7388508708 
873, 12883.1074108735 
874, 12712.8265422888 
875, 12542.6816915197 
876, 12373.4819538214 
877, 12207.5293223566 
878, 12047.1240563185 
879, 11889.2432109037 
880, 11730.4325851852 
881, 11571.0216641757 
882, 11411.819797995 
883, 11259.3399213711 
884, 11117.7034933714 
885, 10979.0135618482 
886, 10827.6456694556 
887, 10668.9739695766 
888, 10514.9205650692 
889, 10363.8187787039 
890, 10214.478044736 
891, 10051.8657347527 
892, 9856.99285620742 
893, 9624.17705163032 
894, 9357.04583901144 
895, 9062.98961978988 
896, 8752.65384621194 
897, 8437.60644891821 
898, 8138.58151241113 
899, 7885.82541014601 
900, 7706.8470935847 
901, 7595.20760088717 
902, 7536.93190728437 
903, 7507.06112186936 
904, 7476.24472062105 
905, 7430.00376077511 
906, 7350.47954460511 
907, 7222.43089671879 
908, 7043.35548811261 
909, 6856.67557451729 
910, 6699.57639696747 
911, 6584.15950845433 
912, 6500.02053065183 
913, 6427.93466206205 
914, 6358.00170339737 
915, 6287.61853591616 
916, 6220.88515077435 
917, 6169.03088968072 
918, 6125.06737159868 
919, 6083.53140928784 
920, 6041.38324725637 
921, 5996.62909659746 
922, 5938.04400509216 
923, 5856.43848336027 
924, 5746.25149413215 
925, 5607.40357806327 
926, 5443.70574754051 
927, 5248.44276599869 
928, 5010.22082585174 
929, 4732.59534810803 
930, 4420.89082377213 
931, 4088.99668707848 
932, 3759.90177176935 
933, 3468.22716632358 
934, 3234.71084079398 
935, 3074.48609912321 
936, 2991.39072425458 
937, 2964.40774506864 
938, 2977.67307454199 
939, 3007.45715131062 
940, 3031.95645375185 
941, 3051.03202595648 
942, 3052.96798584869 
943, 3024.72378361479 
944, 2962.37010586984 
945, 2886.81703272802 
946, 2823.79589145586 
947, 2784.11289058546 
948, 2765.9576187324 
949, 2756.60383790521 
950, 2746.07490271996 
951, 2732.7412530229 
952, 2717.32814513945 
953, 2697.02045351594 
954, 2679.21101324454 
955, 2662.37782084386 
956, 2645.68950563822 
957, 2634.52002505773 
958, 2625.13136442274 
959, 2615.76500632921 
960, 2608.17925175052 
961, 2607.79088676044 
962, 2605.155080082 
963, 2603.61292930886 
964, 2604.52227131094 
965, 2603.95455389464 
966, 2599.15987004656 
967, 2589.93013788255 
968, 2575.67058494957 
969, 2555.50203558846 
970, 2531.35151615762 
971, 2504.15380060479 
972, 2469.75759336318 
973, 2423.73919444609 
974, 2375.51459198253 
975, 2324.34870786122 
976, 2273.62305290362 
977, 2228.07181347553 
978, 2189.34502752388 
979, 2157.07058503825 
980, 2127.7608638197 
981, 2098.66383114216 
982, 2071.64980858632 
983, 2041.0268952609 
984, 2008.47923050222 
985, 1975.6767847283 
986, 1940.97231499955 
987, 1904.29952339596 
988, 1865.1155993214 
989, 1824.48220741704 
990, 1784.87134656354 
991, 1746.52912388746 
992, 1706.90332680815 
993, 1666.52042466722 
994, 1627.8584149756 
995, 1590.78513515154 
996, 1551.55302957457 
997, 1510.72653420299 
998, 1470.52932133767 
999, 1431.04005777993 
1000, 1393.47892358314 
1001, 8690.08560726582 
1002, 8661.70146790596 
1003, 8638.22893228035 
1004, 8623.18138951295 
1005, 8613.69492340945 
1006, 8613.09230947512 
1007, 8615.92541026019 
1008, 8627.58905899945 
1009, 8644.58604518668 
1010, 8666.94308678051 
1011, 8695.0552850755 
1012, 8733.96763596208 
1013, 8769.08407073384 
1014, 8802.49601340449 
1015, 8839.05974869437 
1016, 8875.54224216884 
1017, 8913.87330545061 
1018, 8958.75609130465 
1019, 9004.46777858844 
1020, 9046.4678804685 
1021, 9093.59444658079 
1022, 9144.41481821883 
1023, 9199.0241000747 
1024, 9253.29632609122 
1025, 9309.0859648146 
1026, 9366.47440876883 
1027, 9416.74084567034 
1028, 9464.68436271995 
1029, 9518.26947873917 
1030, 9566.64431163319 
1031, 9606.63724503999 
1032, 9645.45432697292 
1033, 9680.37961393882 
1034, 9714.04415935708 
1035, 9748.87735991794 
1036, 9785.44614417521 
1037, 9821.62930328816 
1038, 9860.30546020619 
1039, 9897.33393937393 
1040, 9928.89975707798 
1041, 9957.75203106762 
1042, 9981.56914657516 
1043, 9999.29900197929 
1044, 10023.2744447643 
1045, 10050.9893649831 
1046, 10074.8681982731 
1047, 10100.6797217158 
1048, 10127.458680923 
1049, 10152.4888882364 
1050, 10180.1755385494 
1051, 10216.6237998665 
1052, 10257.3555966551 
1053, 10297.0893776805 
1054, 10335.786118496 
1055, 10377.3758818633 
1056, 10416.4547332205 
1057, 10459.9804715685 
1058, 10515.377026828 
1059, 10577.4011348859 
1060, 10645.8940444354 
1061, 10723.4774803524 
1062, 10805.8224707597 
1063, 10895.2994152784 
1064, 10985.2318785335 
1065, 11084.5477883824 
1066, 11191.7653639123 
1067, 11299.4565245191 
1068, 11415.8976539175 
1069, 11542.04510914 
1070, 11678.4690971682 
1071, 11827.9838811799 
1072, 11984.5987083301 
1073, 12136.9825457313 
1074, 12299.6494183216 
1075, 12443.4154977842 
1076, 12580.8463249285 
1077, 12710.1070988778 
1078, 12825.2657191279 
1079, 12931.0039503633 
1080, 13028.5001828956 
1081, 13122.1272924205 
1082, 13209.1507206118 
1083, 13296.3883124635 
1084, 13385.1086700504 
1085, 13457.9842256259 
1086, 13521.6943581992 
1087, 13577.2170537544 
1088, 13622.2971695813 
1089, 13659.2081406533 
1090, 13683.5019289972 
1091, 13697.2064752608 
1092, 13703.3213496431 
1093, 13686.6426239552 
1094, 13660.3687730385 
1095, 13632.9674375097 
1096, 13599.865141259 
1097, 13577.8790966223 
1098, 13555.2785845453 
1099, 13530.0737560591 
1100, 13507.6128445677 
1101, 13478.5717269649 
1102, 13448.1488183758 
1103, 13408.4656438514 
1104, 13372.594197323 
1105, 13318.1659507337 
1106, 13241.8479502046 
1107, 13132.702350937 
1108, 12973.1166859609 
1109, 12770.5746887564 
1110, 12497.2312169721 
1111, 12163.2610281852 
1112, 11770.2417678016 
1113, 11289.3505105279 
1114, 10808.8349687936 
1115, 10246.455749137 
1116, 9741.8463075184 
1117, 9194.07700596949 
1118, 8731.96378574948 
1119, 8311.19307666012 
1120, 7921.03383436702 
1121, 7597.16716055932 
1122, 7339.87794516358 
1123, 7156.31434578174 
1124, 7029.87847329409 
1125, 6971.52650950405 
1126, 7012.03105171844 
1127, 7047.87867005622 
1128, 7141.4281134441 
1129, 7238.14245695675 
1130, 7370.163193114 
1131, 7493.43728221976 
1132, 7617.37016359455 
1133, 7769.75103792641 
1134, 7925.60989725547 
1135, 8101.57575801439 
1136, 8354.39374447017 
1137, 8615.28933048896 
1138, 8873.51439692286 
1139, 9111.17410489975 
1140, 9271.31125052066 
1141, 9390.57741887621 
1142, 9441.66399116136 
1143, 9400.32922435039 
1144, 9379.91446257202 
1145, 9244.11197219135 
1146, 9235.53493997202 
1147, 9235.65263968885 
1148, 9323.40235589636 
1149, 9498.2745986316 
1150, 9716.31663496599 
1151, 9999.69293664773 
1152, 10315.5628172009 
1153, 10644.3040063428 
1154, 11025.8014855176 
1155, 11382.6505398769 
1156, 11762.1405671004 
1157, 12109.1090607635 
1158, 12457.3529146593 
1159, 12773.8522608852 
1160, 13072.337955988 
1161, 13345.6229378419 
1162, 13599.5834244102 
1163, 13826.2494332125 
1164, 14031.7726205825 
1165, 14204.7279430541 
1166, 14350.0129442282 
1167, 14471.1098896549 
1168, 14556.7913480171 
1169, 14605.3596767572 
1170, 14639.6143963211 
1171, 14643.053075751 
1172, 14632.4036003743 
1173, 14600.3411510168 
1174, 14554.2352696836 
1175, 14480.9212995719 
1176, 14406.6026577609 
1177, 14311.2616612279 
