Wavelength,0212202100069.asd
350, 3740.56978616231 
351, 3938.55140238609 
352, 4119.51586084596 
353, 4273.97795850357 
354, 4424.59595567634 
355, 4583.75983473781 
356, 4754.38235058428 
357, 4921.16753336178 
358, 5095.21692405999 
359, 5280.54520051659 
360, 5482.16809954574 
361, 5728.66908522762 
362, 6012.55772606609 
363, 6320.66375788276 
364, 6637.53070504685 
365, 6957.05559223206 
366, 7261.58903001562 
367, 7529.4301484692 
368, 7736.17716917493 
369, 7860.87264481306 
370, 7907.74496657254 
371, 7898.74142951354 
372, 7870.39197896441 
373, 7861.97492060741 
374, 7879.52464233864 
375, 7904.52933085099 
376, 7928.71137152367 
377, 7945.88259701381 
378, 7937.76202853275 
379, 7870.47358561903 
380, 7780.16227343292 
381, 7677.08437017279 
382, 7561.27072378987 
383, 7420.20861738255 
384, 7274.46587424816 
385, 7171.99175132787 
386, 7172.31933832609 
387, 7322.22920637297 
388, 7541.51117040833 
389, 7735.66628766135 
390, 7818.85788688847 
391, 7909.41722688643 
392, 8001.00097954549 
393, 8076.21662450541 
394, 8135.27189198563 
395, 8302.85945329849 
396, 8636.09205768817 
397, 9157.0223118405 
398, 9886.8929512027 
399, 10715.8567429386 
400, 11566.470369956 
401, 12398.4332123167 
402, 13190.7745823312 
403, 13844.1265626139 
404, 14315.944481797 
405, 14682.7471723599 
406, 14974.5327825703 
407, 15234.1290692174 
408, 15514.9854239567 
409, 15901.8966733806 
410, 16366.9495017876 
411, 16881.8094843584 
412, 17419.4431858626 
413, 17946.3663222265 
414, 18471.5541126097 
415, 18984.4339222113 
416, 19427.3433339445 
417, 19848.0138902717 
418, 20282.1563511464 
419, 20737.9640030975 
420, 21130.3608300957 
421, 21527.496614628 
422, 21963.4496386588 
423, 22434.3663375625 
424, 22867.7613832582 
425, 23209.5839773791 
426, 23413.9332609176 
427, 23437.072655313 
428, 23353.6017270017 
429, 23372.774885734 
430, 23665.3907593081 
431, 24093.2079821954 
432, 24657.0144836073 
433, 25484.4006784396 
434, 26740.098803447 
435, 28075.7789290464 
436, 29099.8325950104 
437, 29730.9561752203 
438, 30398.5008787922 
439, 31087.1402075009 
440, 31735.6600879756 
441, 32318.7547456173 
442, 33080.2684602061 
443, 33883.5313142232 
444, 34621.0852743382 
445, 35225.9186259682 
446, 35712.0115783894 
447, 36148.1438052801 
448, 36610.0157238666 
449, 37181.5576878922 
450, 37667.9601612129 
451, 37933.3052134406 
452, 37924.687628081 
453, 37831.687583031 
454, 37624.9158433834 
455, 37361.9984585256 
456, 37179.8023599462 
457, 37144.1031649759 
458, 37163.7685508811 
459, 37144.7458665947 
460, 37054.1866451039 
461, 36914.2713531726 
462, 36761.4661815644 
463, 36615.0166721706 
464, 36378.4547170677 
465, 36007.302763853 
466, 35548.2785636026 
467, 35134.0275203346 
468, 34781.7483280169 
469, 34519.2021802798 
470, 34361.4718890336 
471, 34309.7859206343 
472, 34279.7073922425 
473, 34279.1923468235 
474, 34340.9638714921 
475, 34340.7972360129 
476, 34314.7883390202 
477, 34302.3688871525 
478, 34327.5458977371 
479, 34443.9273130132 
480, 34602.528763467 
481, 34715.0326625111 
482, 34686.6920553574 
483, 34431.5608475364 
484, 33894.2641023763 
485, 33086.9760516291 
486, 32302.7460407122 
487, 31747.6364102427 
488, 31586.0579261922 
489, 31957.773904109 
490, 32554.0260996388 
491, 33049.9578559306 
492, 33231.9815090342 
493, 33301.3733176388 
494, 33400.2624115017 
495, 33594.0351469185 
496, 33860.6026108906 
497, 33949.5081127437 
498, 33863.2560435413 
499, 33657.987774194 
500, 33379.9719153618 
501, 33170.8135659582 
502, 33092.1457816125 
503, 33172.3947361249 
504, 33489.123842948 
505, 33929.4312965015 
506, 34376.1248965356 
507, 34727.500411987 
508, 34995.0896339566 
509, 35205.6953154299 
510, 35402.0606824755 
511, 35664.3511712099 
512, 35849.3154627454 
513, 35887.5780212548 
514, 35758.9835246085 
515, 35468.9989075357 
516, 35077.7996699953 
517, 34693.7766890487 
518, 34471.0604779373 
519, 34763.98292221 
520, 35605.555602374 
521, 36795.8996961582 
522, 37795.3572833012 
523, 38540.8588021571 
524, 39063.4145986644 
525, 39457.2889266593 
526, 39632.7125335645 
527, 39707.9758318264 
528, 39922.3836978283 
529, 40723.7416177877 
530, 41773.7387027283 
531, 42664.5713126241 
532, 43057.4648920904 
533, 43191.3834863619 
534, 43389.4301774653 
535, 43824.4355898815 
536, 44481.6306486417 
537, 44958.9481837629 
538, 45184.8851378255 
539, 45219.8492751273 
540, 45209.5931237899 
541, 45254.6963494975 
542, 45491.1893056976 
543, 46024.5751422823 
544, 46639.651107604 
545, 47178.2281722568 
546, 47553.4768317464 
547, 47769.2008945217 
548, 47913.5586001609 
549, 48080.3198878866 
550, 48327.8450931415 
551, 48589.0718159549 
552, 48789.8552696968 
553, 48935.2806885944 
554, 49091.9587880294 
555, 49213.921239696 
556, 49178.4558165174 
557, 48917.0069824114 
558, 48473.8448089679 
559, 48094.5231506038 
560, 47925.9609281071 
561, 48021.9851014224 
562, 48251.884293337 
563, 48389.7232296365 
564, 48326.2669749581 
565, 48100.9612714691 
566, 47780.5361214606 
567, 47454.9198276639 
568, 47179.5115279259 
569, 46906.3813699051 
570, 46544.4840455015 
571, 46198.4744401739 
572, 46078.3165959167 
573, 46133.535900508 
574, 46136.120422067 
575, 45939.9800934258 
576, 45564.3549009211 
577, 45213.5904408778 
578, 45027.0807754328 
579, 45081.9309767268 
580, 45317.4376709185 
581, 45721.5651822402 
582, 46209.6145073008 
583, 46630.2961415264 
584, 46898.7904564008 
585, 46896.1936307123 
586, 46608.1655850456 
587, 46255.3086088934 
588, 45825.5622804032 
589, 45245.9251720488 
590, 44513.017394894 
591, 44259.6383151666 
592, 44475.7504365857 
593, 44860.7996913205 
594, 44840.7405598527 
595, 44612.800401551 
596, 44288.7279404494 
597, 43944.8009185979 
598, 43565.7616984875 
599, 43105.080819879 
600, 42603.9831369896 
601, 42164.690919086 
602, 41828.2763720552 
603, 41648.0790508908 
604, 41620.1190200095 
605, 41659.6542116122 
606, 41570.1367385402 
607, 41340.833048413 
608, 41045.3267744881 
609, 40754.8080606121 
610, 40478.1748472985 
611, 40228.2043170803 
612, 40020.333208265 
613, 39800.9386158796 
614, 39544.2078622502 
615, 39263.9008407539 
616, 39043.1922920182 
617, 38911.4100591432 
618, 38919.9073446228 
619, 39091.8851933872 
620, 39274.282157597 
621, 39301.0540500594 
622, 39116.5874827874 
623, 38801.6946827334 
624, 38441.3464476398 
625, 38100.3092767571 
626, 37813.9994505164 
627, 37565.0978379923 
628, 37324.5097250768 
629, 37094.1938816173 
630, 36910.8105756315 
631, 36915.4540043035 
632, 37034.2462628591 
633, 37191.7156074585 
634, 37364.0851635964 
635, 37492.1760798309 
636, 37580.8888878092 
637, 37648.3508441487 
638, 37667.9297842134 
639, 37608.6935330126 
640, 37445.0041338732 
641, 37171.0982155584 
642, 36957.8212257963 
643, 36832.604747863 
644, 36756.3539019693 
645, 36618.7419051805 
646, 36403.8606885702 
647, 36133.65738652 
648, 35856.7805932409 
649, 35629.2110119878 
650, 35445.0061095309 
651, 35338.6871167514 
652, 35375.5615139508 
653, 35294.2555553956 
654, 34903.1889286986 
655, 34166.4459691756 
656, 33313.8053570806 
657, 32695.5828507541 
658, 32694.0443666243 
659, 33508.9469483159 
660, 34354.1862260982 
661, 34843.5859164123 
662, 34944.9175016312 
663, 34996.5398617857 
664, 34964.3620813989 
665, 34910.6696876787 
666, 34890.0039613273 
667, 34901.7652096353 
668, 34892.7073458724 
669, 34861.1798496972 
670, 34829.9944648985 
671, 34762.2673073561 
672, 34682.7319826833 
673, 34631.357780047 
674, 34658.584689346 
675, 34704.213649293 
676, 34739.7368770497 
677, 34756.0016417649 
678, 34777.3522519719 
679, 34787.3220851313 
680, 34784.4604742322 
681, 34774.4539888948 
682, 34752.9120402222 
683, 34675.0370946203 
684, 34392.671721399 
685, 33625.2044627063 
686, 32272.4186340719 
687, 30460.6377723338 
688, 28632.9176642279 
689, 27874.3404304465 
690, 28440.4098900537 
691, 29832.2794339991 
692, 31102.669027035 
693, 32225.8197850212 
694, 33049.3635249917 
695, 33549.8496776865 
696, 33878.2256220242 
697, 34135.7403513341 
698, 34298.9576983397 
699, 34326.173510035 
700, 34255.1356531605 
701, 34179.4991875988 
702, 34173.6531366082 
703, 34289.6660741279 
704, 34544.917535766 
705, 34847.5164364954 
706, 35105.8824057578 
707, 35251.3506898624 
708, 35363.4887255369 
709, 35462.1010440948 
710, 35550.2129860579 
711, 35633.19374565 
712, 35688.9419332342 
713, 35702.2932973413 
714, 35654.1051944648 
715, 35492.5072776927 
716, 35079.4983405776 
717, 34350.029918611 
718, 33345.4577804432 
719, 32489.0341986347 
720, 32153.4170964725 
721, 32493.7921356426 
722, 33248.3484078393 
723, 33785.5526020909 
724, 33884.2433909029 
725, 33651.6567091576 
726, 33596.3536741847 
727, 33674.6917571901 
728, 33788.933278408 
729, 33849.3533479846 
730, 34037.891767088 
731, 34394.4239021676 
732, 34887.6459095519 
733, 35419.0238698506 
734, 35869.0209219001 
735, 36150.1680549966 
736, 36227.012754756 
737, 36183.1061884271 
738, 36113.3824965877 
739, 36042.8148777293 
740, 35941.6015917588 
741, 35898.1145525029 
742, 35932.9091746224 
743, 36036.6878772288 
744, 36175.9039737207 
745, 36275.3884013626 
746, 36322.186004192 
747, 36325.0911440895 
748, 36285.1764843624 
749, 36173.7627470515 
750, 36017.6997350557 
751, 35880.8441493021 
752, 35815.5334297358 
753, 35803.514847142 
754, 35808.7775617295 
755, 35783.0797284866 
756, 35615.9686367104 
757, 34886.4750883559 
758, 32917.1661103067 
759, 28542.9052966314 
760, 22111.3782201392 
761, 15813.9580163767 
762, 12300.9048526701 
763, 12339.8922357876 
764, 14270.7717911677 
765, 17232.1028819683 
766, 21099.4563259793 
767, 25303.3416344506 
768, 28946.2662271866 
769, 31476.4943398522 
770, 32895.21999753 
771, 33598.5294353379 
772, 33878.0951377333 
773, 33955.4820527091 
774, 33952.2595471313 
775, 33884.2312305836 
776, 33790.6557345788 
777, 33701.7690841783 
778, 33576.9578128726 
779, 33426.75273672 
780, 33275.958941009 
781, 33152.7955093573 
782, 33019.2299633808 
783, 32858.6404218885 
784, 32673.9201589865 
785, 32491.3782665691 
786, 32312.2973523145 
787, 32105.0038859879 
788, 31842.3909479409 
789, 31533.6569610218 
790, 31196.7859189146 
791, 30842.1178654459 
792, 30479.8379464769 
793, 30127.9662837763 
794, 29843.7523364919 
795, 29660.0056798052 
796, 29576.1300446328 
797, 29521.3965472744 
798, 29412.8873055034 
799, 29213.0906948651 
800, 28945.5994970946 
801, 28657.0596008826 
802, 28386.6288931541 
803, 28148.3081440335 
804, 27908.9972816347 
805, 27698.7217005161 
806, 27505.7323069233 
807, 27298.2287497028 
808, 27032.2250399888 
809, 26716.4381343113 
810, 26373.7498076801 
811, 26020.7080878665 
812, 25600.4890287288 
813, 25052.4191939854 
814, 24363.0222576149 
815, 23576.2958070405 
816, 22831.9741536634 
817, 22230.9975181692 
818, 21839.7106866392 
819, 21684.8484575992 
820, 21620.478429993 
821, 21527.9928431838 
822, 21355.4845434208 
823, 21166.8781667455 
824, 21034.5879918414 
825, 21029.8651168934 
826, 21136.0781938913 
827, 21078.6377699011 
828, 20852.099393227 
829, 20548.2849017082 
830, 20298.2783418517 
831, 20122.9259852962 
832, 19984.852032634 
833, 19867.9263951893 
834, 19778.6384957965 
835, 19724.787096943 
836, 19690.351573999 
837, 19642.2277757312 
838, 19536.0622968194 
839, 19387.5459999846 
840, 19210.9584802334 
841, 19018.5858537093 
842, 18817.5169398453 
843, 18609.6039807273 
844, 18402.9915105476 
845, 18203.5394954953 
846, 18013.7311439992 
847, 17779.4017253558 
848, 17492.7320930853 
849, 17170.8445874003 
850, 16851.7688166175 
851, 16479.045342601 
852, 16091.513735667 
853, 15766.5478497953 
854, 15526.1669850488 
855, 15333.0326980378 
856, 15245.6878638321 
857, 15348.8088018333 
858, 15509.7102047118 
859, 15554.9326923956 
860, 15451.7235815508 
861, 15293.2679628272 
862, 15101.2921626777 
863, 14851.274088089 
864, 14546.6594357083 
865, 14230.345853196 
866, 13932.0419220838 
867, 13679.4855148215 
868, 13515.6532736097 
869, 13499.9666200786 
870, 13544.101060729 
871, 13542.0679691844 
872, 13442.4711209055 
873, 13293.7101259147 
874, 13134.6456613527 
875, 12976.7029182572 
876, 12820.7817678137 
877, 12666.5979576762 
878, 12516.0935365943 
879, 12366.8170673663 
880, 12216.4026642282 
881, 12066.7056814879 
882, 11915.5874949325 
883, 11771.2265358636 
884, 11639.1447256361 
885, 11506.3864258014 
886, 11360.8033898045 
887, 11206.196065664 
888, 11052.9256189614 
889, 10905.9943260695 
890, 10760.1307975726 
891, 10598.8956133812 
892, 10402.6059544728 
893, 10161.4598334015 
894, 9884.09590893419 
895, 9577.09360845821 
896, 9248.38094463948 
897, 8914.46137326164 
898, 8595.45647483038 
899, 8325.92270414911 
900, 8139.06977394913 
901, 8025.60634883753 
902, 7968.46712744818 
903, 7941.091440619 
904, 7913.61941808261 
905, 7871.17575749419 
906, 7789.98637588592 
907, 7653.72703861307 
908, 7462.95206601893 
909, 7264.31340148249 
910, 7095.11101602443 
911, 6969.52403969416 
912, 6879.9379752042 
913, 6805.38104121941 
914, 6731.41423252099 
915, 6655.34425658598 
916, 6584.65115853236 
917, 6532.26148719863 
918, 6489.21659993203 
919, 6448.87724787003 
920, 6407.41670956093 
921, 6358.39843819261 
922, 6298.30474521148 
923, 6216.24117541585 
924, 6099.42520495724 
925, 5953.83421982976 
926, 5780.9584277993 
927, 5573.84280713581 
928, 5321.63749216988 
929, 5022.55516204762 
930, 4685.54510002829 
931, 4326.87857559058 
932, 3970.97142819906 
933, 3654.91899505323 
934, 3403.56715483797 
935, 3231.60547123368 
936, 3141.02247849137 
937, 3116.57242861531 
938, 3134.13352590361 
939, 3167.19711890817 
940, 3195.10363982186 
941, 3220.21228342665 
942, 3226.33060734313 
943, 3197.82505852691 
944, 3130.9039303168 
945, 3051.10021948554 
946, 2986.72825832934 
947, 2947.33780516191 
948, 2929.30422251071 
949, 2921.57936973409 
950, 2915.34896401653 
951, 2905.6780589261 
952, 2891.11176482451 
953, 2873.02209798622 
954, 2857.76184037601 
955, 2843.73580012715 
956, 2830.06532541122 
957, 2821.78684541941 
958, 2815.02040065471 
959, 2812.02605966174 
960, 2813.19982718392 
961, 2814.30939648878 
962, 2815.56713716938 
963, 2819.34103245503 
964, 2826.53059721665 
965, 2835.07981852476 
966, 2837.84869844664 
967, 2834.34798337043 
968, 2826.2654333483 
969, 2815.23143748267 
970, 2795.94384520801 
971, 2772.127288635 
972, 2740.59295265312 
973, 2696.26964515225 
974, 2649.65529882005 
975, 2600.68593089681 
976, 2552.71617509367 
977, 2510.01005891872 
978, 2473.65134941434 
979, 2443.18939130857 
980, 2418.4909992885 
981, 2397.17990379536 
982, 2372.20025467519 
983, 2345.36693739015 
984, 2317.43567403909 
985, 2287.70023927575 
986, 2253.73858480926 
987, 2217.91359391135 
988, 2181.25912186792 
989, 2143.23290436979 
990, 2102.51735229485 
991, 2062.76557349749 
992, 2023.01762071579 
993, 1982.72565390905 
994, 1942.27757558247 
995, 1903.10920409797 
996, 1863.57444558488 
997, 1822.23738818825 
998, 1779.19225141508 
999, 1738.11490152211 
1000, 1695.59517048586 
1001, 10838.7154171563 
1002, 10843.0333525282 
1003, 10847.3665490759 
1004, 10854.6544919453 
1005, 10866.6885899604 
1006, 10897.4651442773 
1007, 10941.0043958553 
1008, 10989.2021629589 
1009, 11046.4244272955 
1010, 11118.1176668166 
1011, 11184.839140189 
1012, 11255.5905359149 
1013, 11332.2846073125 
1014, 11399.7111582518 
1015, 11462.3955155742 
1016, 11534.3437583776 
1017, 11608.2136202986 
1018, 11686.0137484062 
1019, 11765.445198193 
1020, 11834.4734100296 
1021, 11906.1157741424 
1022, 11984.1154172842 
1023, 12064.5078824208 
1024, 12147.647855743 
1025, 12235.6510675189 
1026, 12318.4408088818 
1027, 12395.3316326087 
1028, 12468.5470214185 
1029, 12537.9213546879 
1030, 12602.4304317715 
1031, 12661.573457891 
1032, 12715.8941150121 
1033, 12769.6998010948 
1034, 12816.2537275272 
1035, 12859.8773415498 
1036, 12898.6825584246 
1037, 12938.8437109687 
1038, 12969.6728149657 
1039, 13003.6472690233 
1040, 13032.5530162894 
1041, 13046.2993027001 
1042, 13063.4219145288 
1043, 13073.6687204507 
1044, 13080.9465552331 
1045, 13095.3701018811 
1046, 13103.3683129671 
1047, 13115.059297469 
1048, 13127.8596090382 
1049, 13145.3999169353 
1050, 13159.8570289415 
1051, 13177.3001120792 
1052, 13193.481888066 
1053, 13209.7646414777 
1054, 13223.867577211 
1055, 13239.6077587891 
1056, 13258.6623758037 
1057, 13277.6483497853 
1058, 13301.9495305369 
1059, 13337.0331573758 
1060, 13385.3620834406 
1061, 13448.0468262458 
1062, 13512.3641837701 
1063, 13586.6190396842 
1064, 13666.8205638349 
1065, 13750.4348660563 
1066, 13843.4875985579 
1067, 13947.2681528186 
1068, 14063.9213893607 
1069, 14192.3655225322 
1070, 14330.2826850954 
1071, 14487.0885144397 
1072, 14650.6027458428 
1073, 14810.4279898574 
1074, 14982.034926617 
1075, 15138.5494475165 
1076, 15290.2263767362 
1077, 15434.7181124888 
1078, 15568.5919828246 
1079, 15687.8960409893 
1080, 15792.953722971 
1081, 15887.159314153 
1082, 15976.8590424598 
1083, 16062.9538401469 
1084, 16142.6957901897 
1085, 16218.2921986563 
1086, 16290.2642580742 
1087, 16361.577784077 
1088, 16417.3371330942 
1089, 16473.2783813008 
1090, 16505.9182098245 
1091, 16521.2416938728 
1092, 16521.2704598478 
1093, 16502.8219583489 
1094, 16482.0194091144 
1095, 16454.928370527 
1096, 16424.0980211309 
1097, 16401.1496201887 
1098, 16373.2793567771 
1099, 16345.5457308709 
1100, 16317.9737045569 
1101, 16287.3096782842 
1102, 16261.3891498606 
1103, 16223.0262805975 
1104, 16191.2711957558 
1105, 16131.6481173203 
1106, 16057.0843386804 
1107, 15942.4492183025 
1108, 15766.5600422152 
1109, 15540.7983703622 
1110, 15217.8459481232 
1111, 14812.8252258691 
1112, 14335.167031964 
1113, 13744.2830102013 
1114, 13158.176911182 
1115, 12468.1209926943 
1116, 11851.2631467081 
1117, 11186.506262909 
1118, 10622.0988291924 
1119, 10100.5539338348 
1120, 9634.00461542275 
1121, 9243.40808572855 
1122, 8925.32062174061 
1123, 8700.62577652357 
1124, 8551.10622159291 
1125, 8488.39405428056 
1126, 8548.18447091526 
1127, 8602.21637538648 
1128, 8734.54718566071 
1129, 8861.55423194111 
1130, 9022.65563334126 
1131, 9185.58701863206 
1132, 9353.97026471023 
1133, 9554.76412597163 
1134, 9765.68517684796 
1135, 9995.09537626924 
1136, 10322.4737851114 
1137, 10666.4369622801 
1138, 11010.6275768197 
1139, 11330.0907404411 
1140, 11547.9340133007 
1141, 11708.6574467605 
1142, 11792.0937673295 
1143, 11761.6440933077 
1144, 11757.2394384999 
1145, 11608.5422729988 
1146, 11623.9900795016 
1147, 11644.591943849 
1148, 11790.6978619012 
1149, 12056.5876408406 
1150, 12382.3847923146 
1151, 12799.4381980962 
1152, 13262.7153030916 
1153, 13746.008197662 
1154, 14299.4264033296 
1155, 14829.6359887787 
1156, 15394.0112857002 
1157, 15923.9481506042 
1158, 16462.2512758631 
1159, 16965.9873778612 
1160, 17457.3750471305 
1161, 17913.2015928327 
1162, 18352.8016152506 
1163, 18753.1801517526 
1164, 19120.2236889579 
1165, 19451.872399059 
1166, 19750.3753882053 
1167, 20012.6163013927 
1168, 20246.7126358053 
1169, 20449.3884957501 
1170, 20615.6919057078 
1171, 20749.0640405733 
1172, 20853.2074754989 
1173, 20908.4769498146 
1174, 20963.3267034362 
1175, 20989.6363468818 
1176, 21012.6400514752 
1177, 21018.494599215 
