Wavelength,0212202100051.asd
350, 560.700445660059 
351, 591.179548531907 
352, 617.23192519161 
353, 641.749425613843 
354, 665.357034034638 
355, 689.665735141315 
356, 715.154239302395 
357, 738.166934444429 
358, 764.03347786159 
359, 792.876217100598 
360, 823.267709654998 
361, 860.815005817425 
362, 903.04684621288 
363, 948.554883578872 
364, 997.34562172261 
365, 1045.9517194998 
366, 1092.27750643738 
367, 1132.99520454645 
368, 1161.88442396177 
369, 1181.15919234678 
370, 1190.65217769485 
371, 1191.00533923866 
372, 1186.55398310941 
373, 1185.37805926325 
374, 1188.84728617146 
375, 1193.34046340365 
376, 1196.81298015355 
377, 1199.22887260844 
378, 1198.29710872194 
379, 1188.49763594535 
380, 1175.73723028695 
381, 1161.0221415852 
382, 1144.07694690277 
383, 1124.25780151426 
384, 1103.0335700683 
385, 1088.64848204758 
386, 1091.49966185611 
387, 1114.23541669102 
388, 1147.79686922089 
389, 1178.55234493188 
390, 1191.18319797024 
391, 1204.86722526923 
392, 1219.99909237989 
393, 1233.99606256061 
394, 1243.92850560247 
395, 1270.7033835207 
396, 1322.59416749369 
397, 1402.27430024342 
398, 1515.15905280366 
399, 1644.1640741488 
400, 1776.25946367401 
401, 1903.74695235099 
402, 2026.47736193972 
403, 2128.18172769143 
404, 2201.79774275966 
405, 2260.71170503961 
406, 2309.92061374366 
407, 2353.51845821865 
408, 2397.72611576617 
409, 2459.83485513989 
410, 2535.83946912503 
411, 2619.96685660967 
412, 2705.89572398946 
413, 2792.6488744205 
414, 2878.4487512501 
415, 2960.41819442489 
416, 3033.54453301818 
417, 3102.70606097986 
418, 3172.70138890947 
419, 3245.29623351053 
420, 3310.35249479624 
421, 3376.68977504514 
422, 3447.87855416555 
423, 3522.34593487868 
424, 3594.08000105754 
425, 3652.00918966904 
426, 3686.59952717289 
427, 3690.85341237088 
428, 3680.910237463 
429, 3688.56246450214 
430, 3738.43141946666 
431, 3809.87998209543 
432, 3901.69033845285 
433, 4035.07982036668 
434, 4238.31817707214 
435, 4451.34906871128 
436, 4614.67687889145 
437, 4717.72300188535 
438, 4828.62726652954 
439, 4943.11320406495 
440, 5051.11164217501 
441, 5148.62223658099 
442, 5273.55780760341 
443, 5405.33369419999 
444, 5526.53193156231 
445, 5625.24282644378 
446, 5706.06262606373 
447, 5780.33622809536 
448, 5859.5212804706 
449, 5955.25307314366 
450, 6036.44275151995 
451, 6081.92341204239 
452, 6083.97680449516 
453, 6073.25308526439 
454, 6044.15479416048 
455, 6005.04395090962 
456, 5977.3321884949 
457, 5975.19223568128 
458, 5982.02221297341 
459, 5981.09139023299 
460, 5968.1677770898 
461, 5949.22874781152 
462, 5928.85882606814 
463, 5907.73460649162 
464, 5870.78197192061 
465, 5812.91584361124 
466, 5741.02798320157 
467, 5673.25345792674 
468, 5617.37773673889 
469, 5575.90459791007 
470, 5549.58705082816 
471, 5541.35888149027 
472, 5537.70614955209 
473, 5538.71447845032 
474, 5548.23208298841 
475, 5548.27336377339 
476, 5544.82468884759 
477, 5543.1326177571 
478, 5544.66818237917 
479, 5561.95757387313 
480, 5585.18100048368 
481, 5598.52131620779 
482, 5590.8043401226 
483, 5547.0672036066 
484, 5458.06990302138 
485, 5325.91095878021 
486, 5197.81607997338 
487, 5107.00777908057 
488, 5079.73022232099 
489, 5137.93397114828 
490, 5229.90014524859 
491, 5303.8446929954 
492, 5327.44629588256 
493, 5337.8910791265 
494, 5351.03958711182 
495, 5376.93660532978 
496, 5416.86052315225 
497, 5428.50996951548 
498, 5411.18729085362 
499, 5374.00207335768 
500, 5326.79244926458 
501, 5290.74467465708 
502, 5274.84386687078 
503, 5283.20691340847 
504, 5329.15797276579 
505, 5394.86104004808 
506, 5461.67190573818 
507, 5513.33002793139 
508, 5551.51301535478 
509, 5580.69605749166 
510, 5607.80598070933 
511, 5645.22424409828 
512, 5670.47660810077 
513, 5672.71181551016 
514, 5648.73668205144 
515, 5598.56713031176 
516, 5533.20427845098 
517, 5470.20965030338 
518, 5432.54413502693 
519, 5474.395336376 
520, 5601.39692851129 
521, 5783.01722162076 
522, 5934.22652660765 
523, 6045.11587683665 
524, 6121.89338040214 
525, 6181.23824451815 
526, 6204.29004080406 
527, 6210.11501868333 
528, 6237.90758738808 
529, 6360.35245772072 
530, 6520.10123638514 
531, 6652.88662910118 
532, 6707.17885718399 
533, 6723.0535776063 
534, 6748.78439184586 
535, 6810.16968266158 
536, 6905.24045175039 
537, 6973.3368073159 
538, 7003.36975033965 
539, 7003.98355375936 
540, 6996.2364291508 
541, 6997.45312686515 
542, 7028.38187403684 
543, 7104.05484903687 
544, 7191.99600534056 
545, 7268.59417651435 
546, 7320.81252947979 
547, 7348.94619623402 
548, 7365.97183852555 
549, 7386.20256035938 
550, 7418.69494181283 
551, 7453.01020921049 
552, 7479.57938957342 
553, 7498.03765487548 
554, 7515.34564032972 
555, 7528.6910170061 
556, 7518.51845536695 
557, 7473.44096989377 
558, 7401.180559834 
559, 7338.01995931895 
560, 7306.73734223175 
561, 7316.55950191949 
562, 7348.04966132616 
563, 7366.63334356277 
564, 7353.90166100815 
565, 7312.41293918444 
566, 7258.35244572173 
567, 7204.73129662229 
568, 7158.45535095348 
569, 7113.6553983719 
570, 7056.27062437181 
571, 7000.34572452702 
572, 6975.663311938 
573, 6980.26965419794 
574, 6977.30325888725 
575, 6943.34813810962 
576, 6883.84352726652 
577, 6825.2958798564 
578, 6790.15455918046 
579, 6792.60295910578 
580, 6821.58552546043 
581, 6875.57313284061 
582, 6941.56578009706 
583, 6996.04031926013 
584, 7026.0104909554 
585, 7017.95302256268 
586, 6971.18932204547 
587, 6911.06092768663 
588, 6842.00933152709 
589, 6751.60490893254 
590, 6635.32390900346 
591, 6592.40080241667 
592, 6619.93058077407 
593, 6672.16490192444 
594, 6663.89639214301 
595, 6624.11858953638 
596, 6569.05369027089 
597, 6510.04004200364 
598, 6445.71036744446 
599, 6371.66729239195 
600, 6292.90094051542 
601, 6221.28762569761 
602, 6165.11907266407 
603, 6132.43346608991 
604, 6122.32600812317 
605, 6121.56387114529 
606, 6101.83986668057 
607, 6061.57222449843 
608, 6011.5463793847 
609, 5962.96819306177 
610, 5917.07161488036 
611, 5874.27710408338 
612, 5834.54574133982 
613, 5796.28767806838 
614, 5753.94355392251 
615, 5706.98927443329 
616, 5667.32672420041 
617, 5639.57476576928 
618, 5632.21485527763 
619, 5649.54884699391 
620, 5667.31639477656 
621, 5662.89313448777 
622, 5628.29913906365 
623, 5573.28212609675 
624, 5513.91479159141 
625, 5457.75123175807 
626, 5408.11428688568 
627, 5365.68203432735 
628, 5324.58832839679 
629, 5284.09129137556 
630, 5248.98947422554 
631, 5240.16028093688 
632, 5246.2382037448 
633, 5256.63162165073 
634, 5270.04768397953 
635, 5277.65488842338 
636, 5278.43362518533 
637, 5274.40578162224 
638, 5268.17053964512 
639, 5249.71987885707 
640, 5215.61972792041 
641, 5169.7056840837 
642, 5128.40725846336 
643, 5099.47371376159 
644, 5080.57293046134 
645, 5053.8852437619 
646, 5016.30311145242 
647, 4970.93534823244 
648, 4924.9883698866 
649, 4886.11237470084 
650, 4851.93086738424 
651, 4828.31746133629 
652, 4827.88397786284 
653, 4809.39608383025 
654, 4748.7019252026 
655, 4642.81489347813 
656, 4520.86029398035 
657, 4430.1804936088 
658, 4423.78471987847 
659, 4529.8886618018 
660, 4638.17983541378 
661, 4696.58513245682 
662, 4702.93030723626 
663, 4706.94417708888 
664, 4699.08614601213 
665, 4687.41136324109 
666, 4680.13904707154 
667, 4678.13506638663 
668, 4673.81904240636 
669, 4666.49910434352 
670, 4658.99678139771 
671, 4648.05120421732 
672, 4636.19174202665 
673, 4628.1542612004 
674, 4630.6802451455 
675, 4636.03675464464 
676, 4640.24721330284 
677, 4642.02679205092 
678, 4645.32604368458 
679, 4647.68000325098 
680, 4648.82248390029 
681, 4649.43061040759 
682, 4647.83179843758 
683, 4638.1463516039 
684, 4601.93040671419 
685, 4504.53642367971 
686, 4332.34146034833 
687, 4100.07035118484 
688, 3864.72213998317 
689, 3771.49347987 
690, 3853.18015785333 
691, 4042.06788370543 
692, 4211.57293299918 
693, 4364.59091214212 
694, 4478.91051544705 
695, 4550.47730756847 
696, 4601.61237226763 
697, 4642.65657216319 
698, 4669.32032074992 
699, 4676.911489957 
700, 4676.00231607121 
701, 4675.04611447127 
702, 4682.55394950409 
703, 4706.15271402455 
704, 4750.61809951591 
705, 4803.21563925564 
706, 4850.38483525963 
707, 4881.00050532811 
708, 4907.33932612433 
709, 4933.60155103951 
710, 4961.08819184999 
711, 4989.44596682244 
712, 5015.86263385315 
713, 5037.18718418284 
714, 5049.56439341909 
715, 5049.35171613497 
716, 5015.39759951814 
717, 4937.60773534276 
718, 4822.62034555704 
719, 4726.89882516202 
720, 4704.08641522679 
721, 4777.73440099882 
722, 4910.92663045905 
723, 5014.24909182918 
724, 5055.57394847662 
725, 5049.53974171927 
726, 5072.24913681392 
727, 5112.9924851589 
728, 5156.03406699227 
729, 5190.61215533981 
730, 5247.27633988112 
731, 5329.13082268881 
732, 5429.45128267598 
733, 5536.72750736143 
734, 5631.62236423816 
735, 5700.21251264794 
736, 5736.68845909851 
737, 5753.87649590928 
738, 5765.42138091779 
739, 5775.62992811326 
740, 5781.38379578624 
741, 5793.94746736805 
742, 5817.43856350376 
743, 5850.51128325242 
744, 5885.49879410733 
745, 5916.2893668862 
746, 5938.18522609381 
747, 5948.64551166598 
748, 5949.01128669588 
749, 5938.62665316693 
750, 5920.87528056653 
751, 5902.41082623488 
752, 5892.7226095166 
753, 5892.18294678175 
754, 5894.5835788735 
755, 5887.18174987446 
756, 5857.57964621153 
757, 5737.58411532563 
758, 5415.8604123162 
759, 4701.25304826346 
760, 3651.23871028754 
761, 2624.6624973066 
762, 2054.43720939753 
763, 2062.6444706603 
764, 2372.65305969909 
765, 2841.78908071831 
766, 3450.60610682157 
767, 4102.94282393037 
768, 4659.26681311883 
769, 5036.31121630098 
770, 5238.37311026062 
771, 5326.29930223252 
772, 5347.21124606822 
773, 5336.92388129919 
774, 5312.94283867817 
775, 5279.82410044646 
776, 5243.52354798009 
777, 5207.67783387313 
778, 5166.13068313869 
779, 5120.69365082259 
780, 5075.64574880144 
781, 5035.93205230209 
782, 4995.42690545787 
783, 4951.86062796806 
784, 4905.47127525555 
785, 4859.26405999001 
786, 4814.99354755087 
787, 4767.82347397883 
788, 4713.43296984741 
789, 4653.81247962889 
790, 4590.79212603215 
791, 4526.34938011443 
792, 4462.52135186091 
793, 4400.08401292553 
794, 4348.54369440667 
795, 4312.66741332409 
796, 4291.59238910868 
797, 4276.97878356078 
798, 4256.22699324612 
799, 4223.34332080034 
800, 4181.67533910283 
801, 4137.70217878111 
802, 4096.29918156137 
803, 4059.64865859024 
804, 4025.42976135427 
805, 3996.33271648642 
806, 3969.75834935525 
807, 3941.08508812318 
808, 3906.27490608172 
809, 3864.43389154041 
810, 3818.9423516177 
811, 3773.50873441851 
812, 3720.17206002475 
813, 3648.86302645774 
814, 3557.46966801561 
815, 3453.03261462988 
816, 3351.9776861917 
817, 3270.10850446555 
818, 3218.73727223987 
819, 3202.86323605749 
820, 3198.58223585338 
821, 3190.45656522104 
822, 3172.29234710242 
823, 3151.24436108625 
824, 3137.39425189872 
825, 3142.18299626564 
826, 3164.21610479413 
827, 3162.4322091953 
828, 3133.80037778145 
829, 3091.9192188343 
830, 3057.4258006011 
831, 3033.69034625274 
832, 3015.73078653827 
833, 3001.16562756936 
834, 2990.28151128902 
835, 2981.91520355931 
836, 2974.41583568792 
837, 2964.69055619739 
838, 2948.38202276386 
839, 2924.70589638927 
840, 2895.3760328244 
841, 2862.13575789858 
842, 2825.61120227812 
843, 2788.47570176008 
844, 2750.80025603833 
845, 2712.67969460918 
846, 2677.02150583557 
847, 2633.62307174445 
848, 2581.33231682158 
849, 2523.4647710424 
850, 2466.38555656509 
851, 2400.89706999636 
852, 2332.84493271464 
853, 2273.96559756759 
854, 2226.33042033359 
855, 2186.20828410105 
856, 2161.61684288341 
857, 2163.06833490803 
858, 2171.30924708314 
859, 2161.9263164856 
860, 2132.20051969352 
861, 2097.77170161433 
862, 2056.03231973775 
863, 2005.84928679622 
864, 1949.54191275036 
865, 1893.06527236833 
866, 1838.63966765481 
867, 1791.36005386839 
868, 1756.64045090801 
869, 1739.18337570244 
870, 1731.80254631357 
871, 1717.86897627346 
872, 1689.4492993555 
873, 1657.04654574968 
874, 1624.26773505063 
875, 1592.22026858714 
876, 1560.60671653942 
877, 1528.44264390227 
878, 1496.95182945961 
879, 1467.49625158644 
880, 1439.79595321589 
881, 1408.69926410237 
882, 1381.94679480916 
883, 1357.52032174103 
884, 1331.87304432093 
885, 1309.02849111506 
886, 1283.44421784853 
887, 1256.71832590875 
888, 1232.47314479294 
889, 1209.7534549608 
890, 1185.76919688892 
891, 1160.78729209175 
892, 1135.37960428789 
893, 1104.51909396206 
894, 1070.27828178372 
895, 1033.41333129294 
896, 994.381892786752 
897, 955.694331581033 
898, 919.94994945485 
899, 889.30645148558 
900, 865.590205108485 
901, 851.339315811314 
902, 843.438904902164 
903, 838.977816071714 
904, 835.34006140993 
905, 829.499243713512 
906, 819.211274486406 
907, 803.220869082854 
908, 782.077383740121 
909, 761.165772844651 
910, 742.500061296898 
911, 728.233086985895 
912, 719.659068618255 
913, 712.976308620226 
914, 704.700056352669 
915, 695.247848110907 
916, 687.513871357944 
917, 680.687304312841 
918, 674.550786142332 
919, 669.876035522521 
920, 667.349224874137 
921, 663.515159859217 
922, 656.356472841778 
923, 646.009374388318 
924, 633.797651356621 
925, 618.632828519524 
926, 601.897783218911 
927, 581.005136586022 
928, 552.533411057752 
929, 523.981685896528 
930, 490.350991530928 
931, 452.364678891504 
932, 415.21527267745 
933, 383.353272568353 
934, 357.575771265955 
935, 339.471155540306 
936, 330.295594490567 
937, 328.484628141368 
938, 328.781284788052 
939, 329.859634406803 
940, 332.468177809776 
941, 336.174486377029 
942, 336.215707867563 
943, 332.088881893035 
944, 325.318150936329 
945, 315.687468706313 
946, 308.658252852868 
947, 304.127391606317 
948, 300.14186087126 
949, 296.832116303743 
950, 295.432306400581 
951, 293.273020359574 
952, 289.159169658699 
953, 288.644964304175 
954, 284.576711635188 
955, 280.788785055733 
956, 280.265740638861 
957, 278.341557700601 
958, 275.122326703609 
959, 272.863957014557 
960, 271.694151099984 
961, 268.069904242207 
962, 266.53534978597 
963, 265.291836635936 
964, 262.977853007247 
965, 260.300812559506 
966, 258.174609670334 
967, 256.492926720833 
968, 253.618173575911 
969, 247.678207611901 
970, 242.822522012883 
971, 239.044223138422 
972, 234.37517134301 
973, 227.112096881388 
974, 221.633505666783 
975, 216.218702027082 
976, 209.60414024411 
977, 201.941400530809 
978, 196.48324217737 
979, 192.340647018178 
980, 188.009813565538 
981, 182.925730729554 
982, 179.232681106701 
983, 173.863732644793 
984, 169.339879560572 
985, 166.243243063643 
986, 160.30482722639 
987, 156.5616549301 
988, 153.631098384943 
989, 149.400568401811 
990, 143.075155095492 
991, 138.990946642354 
992, 135.776661449572 
993, 132.08202655947 
994, 127.592459978598 
995, 124.023632627529 
996, 121.431598238345 
997, 117.086573748184 
998, 109.872313482302 
999, 106.710704794255 
1000, 104.599553332587 
1001, 615.210501301909 
1002, 614.059121838967 
1003, 605.301316364798 
1004, 599.322461693364 
1005, 594.322992530639 
1006, 588.245324714608 
1007, 588.038191383625 
1008, 585.552859609545 
1009, 585.848944937305 
1010, 591.867903473559 
1011, 593.416030424486 
1012, 595.261728997314 
1013, 594.610835322413 
1014, 585.270355845781 
1015, 581.386669395611 
1016, 582.23176603239 
1017, 583.968171117666 
1018, 587.994966430194 
1019, 589.016735323053 
1020, 586.897160774268 
1021, 580.581773603627 
1022, 579.537759969522 
1023, 581.85782141968 
1024, 586.171392535457 
1025, 587.147635936154 
1026, 590.705429565581 
1027, 590.128766466624 
1028, 591.250405615508 
1029, 597.129190417383 
1030, 597.101922429181 
1031, 595.772575369686 
1032, 592.886047255328 
1033, 589.275604772037 
1034, 595.020779383905 
1035, 600.290776679009 
1036, 610.181413530421 
1037, 619.830313883277 
1038, 622.230534344046 
1039, 622.661626277205 
1040, 625.477265303251 
1041, 626.534106172688 
1042, 636.358082914777 
1043, 644.587209919619 
1044, 651.823562431298 
1045, 659.4028162124 
1046, 661.508553807534 
1047, 666.345240205638 
1048, 670.757363269764 
1049, 675.462380016193 
1050, 684.072423241115 
1051, 694.641818661098 
1052, 700.732863302202 
1053, 705.911736755403 
1054, 708.686028345681 
1055, 713.185434910404 
1056, 720.256849726758 
1057, 725.121733708494 
1058, 738.732107500733 
1059, 755.925750643312 
1060, 767.660227296419 
1061, 781.399746491256 
1062, 794.393792206186 
1063, 803.646677171059 
1064, 807.912301245048 
1065, 823.714508920232 
1066, 838.797358247375 
1067, 852.800710626668 
1068, 870.847606560749 
1069, 883.575722033761 
1070, 897.08407468664 
1071, 910.723025938797 
1072, 918.548565579686 
1073, 931.106035812519 
1074, 943.902491357061 
1075, 960.983847707743 
1076, 981.456505193019 
1077, 1005.24024058172 
1078, 1025.19510593524 
1079, 1039.91183532758 
1080, 1050.18548595318 
1081, 1059.60586276051 
1082, 1063.96770461626 
1083, 1070.48360831841 
1084, 1079.05257344844 
1085, 1082.57442811875 
1086, 1088.99391522077 
1087, 1099.51307872943 
1088, 1105.43097877034 
1089, 1109.88460445618 
1090, 1113.56270657183 
1091, 1114.26310282762 
1092, 1120.3488792923 
1093, 1121.55035861032 
1094, 1118.1467086576 
1095, 1110.13449190128 
1096, 1094.26806252949 
1097, 1079.9316894522 
1098, 1073.80343015497 
1099, 1068.79229736605 
1100, 1071.18957538788 
1101, 1067.82138219556 
1102, 1063.04837584367 
1103, 1058.2756619348 
1104, 1052.38753892959 
1105, 1046.21873280865 
1106, 1041.24612587567 
1107, 1035.68570301078 
1108, 1027.4617971126 
1109, 1020.87070508315 
1110, 998.880405824645 
1111, 969.465369335371 
1112, 938.02835533839 
1113, 894.06607302537 
1114, 853.199957211419 
1115, 814.205609703287 
1116, 770.938772532921 
1117, 712.243136072589 
1118, 672.826007665881 
1119, 641.093420464419 
1120, 611.036905187772 
1121, 590.787457269953 
1122, 575.385970576666 
1123, 559.437054280858 
1124, 549.72818043501 
1125, 544.73442536917 
1126, 548.149991772758 
1127, 551.656893136872 
1128, 560.34519016817 
1129, 564.767887366951 
1130, 569.715533466993 
1131, 576.368284255472 
1132, 580.868563130889 
1133, 588.957551083714 
1134, 601.714584562825 
1135, 612.318656222737 
1136, 626.269264947978 
1137, 639.747467929091 
1138, 653.725904763468 
1139, 671.55901494497 
1140, 681.618222220126 
1141, 689.618098745194 
1142, 691.981472040788 
1143, 687.402082542904 
1144, 683.394730900119 
1145, 671.946117080414 
1146, 667.821682417456 
1147, 662.820222321212 
1148, 663.587145297641 
1149, 669.273610349814 
1150, 677.867147212264 
1151, 690.354127204526 
1152, 705.78278004636 
1153, 722.408739179705 
1154, 742.558664693892 
1155, 762.08221450116 
1156, 785.627590236293 
1157, 802.994871060068 
1158, 820.426109558748 
1159, 833.163261176901 
1160, 840.153514685094 
1161, 847.041142752209 
1162, 853.151707665635 
1163, 856.542584606904 
1164, 855.904526373926 
1165, 856.569749821443 
1166, 857.841217614757 
1167, 849.720098015979 
1168, 843.307506350338 
1169, 835.319496349354 
1170, 827.257726053548 
1171, 817.195581038003 
1172, 807.633892204688 
1173, 798.207871075409 
1174, 787.671697583629 
1175, 774.919632312531 
1176, 763.8589292048 
1177, 755.656373220552 
