Wavelength,0212202100002.asd
350, 3633.05417406254 
351, 3814.5069364086 
352, 3981.00798029268 
353, 4125.48884063157 
354, 4273.22728917217 
355, 4427.91735386307 
356, 4586.72343907686 
357, 4746.67019226621 
358, 4912.17991285882 
359, 5092.11227944497 
360, 5298.39599652239 
361, 5547.00175216906 
362, 5820.19008621288 
363, 6106.10167397364 
364, 6401.39473983053 
365, 6702.34530391542 
366, 6986.74786381984 
367, 7229.87560063196 
368, 7409.57005894441 
369, 7512.88736602146 
370, 7549.75112302345 
371, 7543.98713103958 
372, 7526.25485447449 
373, 7524.84920065684 
374, 7542.76182752512 
375, 7565.02827561802 
376, 7591.83695980602 
377, 7601.62374892837 
378, 7575.26879261295 
379, 7500.85408655881 
380, 7409.71586175643 
381, 7308.90559611936 
382, 7197.38836801905 
383, 7067.39469461421 
384, 6941.66441498433 
385, 6868.17944154582 
386, 6899.81011115938 
387, 7050.86590974263 
388, 7234.86388693626 
389, 7384.5523545132 
390, 7469.07638476748 
391, 7566.94206734711 
392, 7649.11825360742 
393, 7703.09627711394 
394, 7789.59105540117 
395, 7994.14193564877 
396, 8354.71009053008 
397, 8880.70614311838 
398, 9579.49108509817 
399, 10366.416521745 
400, 11174.2959091353 
401, 11957.0092929755 
402, 12676.1286578764 
403, 13269.8939432819 
404, 13717.3313386121 
405, 14070.481704679 
406, 14350.6847850871 
407, 14608.8033923824 
408, 14903.5699233287 
409, 15286.7872164041 
410, 15736.6458928653 
411, 16229.0759597196 
412, 16740.0527526565 
413, 17250.3695817732 
414, 17750.8299097045 
415, 18226.6326211165 
416, 18647.3690589161 
417, 19061.2971710802 
418, 19484.5553634588 
419, 19911.0744297608 
420, 20290.4653828827 
421, 20680.5758000283 
422, 21102.8173257668 
423, 21542.4155473373 
424, 21943.9641083532 
425, 22258.0428243432 
426, 22435.3963452505 
427, 22416.0062193581 
428, 22352.876494529 
429, 22423.5837932459 
430, 22742.5024380238 
431, 23163.9117157875 
432, 23749.3354073831 
433, 24605.3138774742 
434, 25817.6366090402 
435, 27019.4677695817 
436, 27938.8800423672 
437, 28550.8619559157 
438, 29201.4708009417 
439, 29856.4296692313 
440, 30480.5066671044 
441, 31070.2421205922 
442, 31803.2572090631 
443, 32549.0593347565 
444, 33223.7184053348 
445, 33792.6238907318 
446, 34253.0072847854 
447, 34680.017993122 
448, 35142.2047613588 
449, 35687.1331576954 
450, 36112.0930786706 
451, 36321.1653635098 
452, 36302.5925249346 
453, 36203.5318759378 
454, 36007.7170555676 
455, 35772.3745245166 
456, 35619.0032415878 
457, 35580.7412273209 
458, 35587.8309148201 
459, 35565.7344232767 
460, 35474.6355126807 
461, 35340.2484823307 
462, 35191.3719330755 
463, 35038.3997391462 
464, 34791.8938953632 
465, 34425.9006613289 
466, 33990.7829940841 
467, 33606.405136835 
468, 33273.3357128592 
469, 33029.5360337593 
470, 32895.7121069263 
471, 32850.7700606313 
472, 32822.1593703893 
473, 32818.820636868 
474, 32870.5797955319 
475, 32855.9461031462 
476, 32825.0923486713 
477, 32818.5482114304 
478, 32844.5575639558 
479, 32966.3540491575 
480, 33122.6550764015 
481, 33216.5929808174 
482, 33173.3712495786 
483, 32890.0050773157 
484, 32327.2621140676 
485, 31533.2353111681 
486, 30820.5293354975 
487, 30349.3752907697 
488, 30250.2667569307 
489, 30663.7798577242 
490, 31223.6498238785 
491, 31652.8392591067 
492, 31803.8230909452 
493, 31867.6935328155 
494, 31974.9554481593 
495, 32171.4669236426 
496, 32413.1391138196 
497, 32471.9028449124 
498, 32365.1928891572 
499, 32154.7798407499 
500, 31875.1281716985 
501, 31686.2557813417 
502, 31634.5201025683 
503, 31725.9687238394 
504, 32061.0159326484 
505, 32488.8075002094 
506, 32893.9468922109 
507, 33221.5982257095 
508, 33466.2139501309 
509, 33662.2325218722 
510, 33856.1558458158 
511, 34110.9059901284 
512, 34270.8843534785 
513, 34284.0124794378 
514, 34156.4359068753 
515, 33845.6522852401 
516, 33443.1921727739 
517, 33080.4027056154 
518, 32910.2308291815 
519, 33269.0139132395 
520, 34142.4315766537 
521, 35294.1044367452 
522, 36210.9763589881 
523, 36892.2948852696 
524, 37373.8465449276 
525, 37711.0500349097 
526, 37835.7638700361 
527, 37897.4112304241 
528, 38142.8728045446 
529, 38985.3504440872 
530, 40012.1140933573 
531, 40815.5096486527 
532, 41103.822600891 
533, 41208.5629745683 
534, 41423.5745119162 
535, 41882.1015012932 
536, 42530.0381478794 
537, 42962.1873561453 
538, 43138.4458263198 
539, 43147.9785722282 
540, 43131.2453232988 
541, 43184.5372904002 
542, 43439.9266467516 
543, 43994.2782605176 
544, 44586.8701049967 
545, 45083.0814218041 
546, 45417.6868077057 
547, 45598.6480125335 
548, 45729.7443525977 
549, 45900.4030350425 
550, 46153.9816801266 
551, 46396.3011893962 
552, 46578.9529214823 
553, 46716.4551802277 
554, 46868.8588375709 
555, 46981.0687734776 
556, 46923.3851282931 
557, 46632.3337454047 
558, 46180.3587425402 
559, 45819.5891927279 
560, 45687.1223049428 
561, 45815.6060933114 
562, 46047.2800296543 
563, 46160.1683441071 
564, 46063.7678678897 
565, 45829.1346609029 
566, 45498.3804053281 
567, 45180.0955371695 
568, 44935.9730409058 
569, 44654.1134607733 
570, 44271.9455378241 
571, 43918.6784532585 
572, 43821.8886605952 
573, 43912.362449875 
574, 43912.0763629689 
575, 43667.5294683458 
576, 43266.0095627821 
577, 42930.5572338678 
578, 42769.8133020296 
579, 42824.8938190995 
580, 43070.6848229463 
581, 43499.463377057 
582, 44008.5025312516 
583, 44411.8257473862 
584, 44651.4273738242 
585, 44616.1089986785 
586, 44303.360925955 
587, 43967.8849115576 
588, 43555.0779773584 
589, 42960.6090702626 
590, 42185.3587197491 
591, 42069.8558606842 
592, 42388.0923941589 
593, 42738.7556996935 
594, 42643.6534642807 
595, 42386.0296520416 
596, 42073.4222737631 
597, 41749.4248831159 
598, 41376.1572930183 
599, 40917.847901061 
600, 40426.2814220155 
601, 40010.5710771471 
602, 39680.8505168124 
603, 39522.7276170389 
604, 39537.5577832034 
605, 39582.6552613935 
606, 39469.7968152476 
607, 39220.9025782871 
608, 38938.5531895711 
609, 38653.0308381544 
610, 38386.3551667916 
611, 38155.7847464237 
612, 37970.0196591923 
613, 37753.50563467 
614, 37494.2864234026 
615, 37219.4435301539 
616, 37006.6686367072 
617, 36870.1240434589 
618, 36886.2331479325 
619, 37103.8175432887 
620, 37266.1607572769 
621, 37258.785670234 
622, 37054.128461312 
623, 36713.9549033179 
624, 36354.7087412695 
625, 36027.2838125822 
626, 35749.5551936406 
627, 35520.211240214 
628, 35260.3739603486 
629, 34998.8168106219 
630, 34839.576587514 
631, 34878.4039415595 
632, 35019.4993631746 
633, 35180.1126287417 
634, 35348.0472049922 
635, 35469.3166524921 
636, 35548.8778814948 
637, 35606.679019503 
638, 35636.6444257456 
639, 35577.7066943661 
640, 35396.8426413872 
641, 35103.7265591948 
642, 34907.0358320517 
643, 34809.7778666891 
644, 34746.601414757 
645, 34599.0074359718 
646, 34376.0038068635 
647, 34109.5583095132 
648, 33847.0900017558 
649, 33619.4662538224 
650, 33433.369823735 
651, 33341.0838059957 
652, 33424.3359252506 
653, 33336.4884948345 
654, 32931.5310466321 
655, 32201.4257767255 
656, 31270.7125135077 
657, 30663.7189349998 
658, 30796.8761191294 
659, 31789.6222148873 
660, 32528.1999934097 
661, 32888.4475219057 
662, 32964.9120049006 
663, 32995.7054894849 
664, 32943.914942784 
665, 32887.7121734694 
666, 32885.4048613585 
667, 32883.6875315322 
668, 32864.8928651827 
669, 32836.1647182298 
670, 32811.4888700898 
671, 32730.2435226269 
672, 32640.6127889124 
673, 32595.7554137798 
674, 32638.5238486467 
675, 32677.4037590535 
676, 32699.0259354282 
677, 32713.3757364571 
678, 32731.7412643703 
679, 32736.8267840185 
680, 32727.9578459184 
681, 32712.9236031382 
682, 32689.1679206794 
683, 32612.7627145887 
684, 32338.7348013118 
685, 31594.2495236787 
686, 30234.1495337879 
687, 28331.594821843 
688, 26383.1882365137 
689, 25911.5111426951 
690, 26691.2998190176 
691, 28106.4254584122 
692, 29343.2423452059 
693, 30405.6214386484 
694, 31152.4064369506 
695, 31580.6821418552 
696, 31882.2361739655 
697, 32136.1523904979 
698, 32289.9020672017 
699, 32287.6436129354 
700, 32211.7739455954 
701, 32138.6740550949 
702, 32141.4491054751 
703, 32278.557474181 
704, 32551.2044940051 
705, 32853.6771146877 
706, 33093.6369593357 
707, 33218.724710354 
708, 33329.9335644671 
709, 33434.9663451462 
710, 33523.4813957249 
711, 33619.434782183 
712, 33677.3562600874 
713, 33691.2534086101 
714, 33665.4974204088 
715, 33526.0341367999 
716, 33126.8814870451 
717, 32401.7776623133 
718, 31397.8887232126 
719, 30589.3206820865 
720, 30354.0110679216 
721, 30817.0463271944 
722, 31638.2951014538 
723, 32123.9021219254 
724, 32126.1826544033 
725, 31880.7978219106 
726, 31884.1678170366 
727, 32000.7616557719 
728, 32106.5704537416 
729, 32165.8565993452 
730, 32373.5304571342 
731, 32751.1309869588 
732, 33250.4218066561 
733, 33777.866180085 
734, 34216.2621058161 
735, 34472.3093660184 
736, 34512.3116359111 
737, 34473.7904243419 
738, 34412.8267582091 
739, 34341.2694227219 
740, 34242.658211898 
741, 34207.3803103604 
742, 34251.2991317447 
743, 34360.8142512013 
744, 34501.7343275296 
745, 34584.2347916594 
746, 34611.1772921581 
747, 34606.9464654537 
748, 34550.6691233252 
749, 34424.9829095432 
750, 34260.7336218469 
751, 34120.4006841017 
752, 34053.9594864886 
753, 34037.6902305909 
754, 34030.9712057245 
755, 33983.2702142627 
756, 33817.161292817 
757, 33106.7530087982 
758, 31127.701706823 
759, 26563.7653228439 
760, 20040.0496339716 
761, 13969.7606434031 
762, 11039.2465303479 
763, 11392.5466558108 
764, 13368.9597938594 
765, 16246.1491722239 
766, 20095.6358404933 
767, 24148.3629763212 
768, 27550.8478430757 
769, 29828.573486356 
770, 31054.9434889372 
771, 31634.9405972153 
772, 31845.8526939779 
773, 31884.6678742956 
774, 31849.1692669374 
775, 31759.7714013259 
776, 31650.1956490799 
777, 31542.8713003128 
778, 31399.1408181708 
779, 31232.0332863217 
780, 31069.3018068093 
781, 30940.8348112453 
782, 30793.8665974136 
783, 30619.1281312998 
784, 30425.4527450636 
785, 30237.4870741452 
786, 30055.9165762512 
787, 29843.6356215093 
788, 29572.3541893167 
789, 29264.1478445655 
790, 28936.886492368 
791, 28595.5523223868 
792, 28244.8218573409 
793, 27910.3954917084 
794, 27646.0643720809 
795, 27479.6280515726 
796, 27404.9121175894 
797, 27346.2022984056 
798, 27231.6395048307 
799, 27033.293186073 
800, 26778.7428557187 
801, 26503.8161918151 
802, 26251.1393956763 
803, 26036.7233616094 
804, 25819.20874297 
805, 25629.3999128013 
806, 25453.3288356619 
807, 25259.0888735072 
808, 25012.1548715558 
809, 24720.6477692884 
810, 24404.8951795249 
811, 24078.3656963602 
812, 23685.2514904448 
813, 23165.3125193286 
814, 22512.4503241763 
815, 21782.2941536033 
816, 21103.0634784249 
817, 20569.4324918306 
818, 20238.5162460553 
819, 20123.3610997063 
820, 20072.0270981303 
821, 19985.4341335092 
822, 19828.1559661471 
823, 19657.7860248989 
824, 19553.2163922676 
825, 19570.9640612453 
826, 19679.0711735907 
827, 19609.348392232 
828, 19387.1247488273 
829, 19107.765989057 
830, 18888.2540538035 
831, 18734.1295810244 
832, 18609.9398848992 
833, 18503.6852598486 
834, 18425.9185045796 
835, 18381.5366007441 
836, 18352.2744885438 
837, 18305.9478170213 
838, 18202.506727389 
839, 18057.8478603408 
840, 17886.7864347356 
841, 17701.752464195 
842, 17509.4661962079 
843, 17311.0004359495 
844, 17114.8320441701 
845, 16925.4144515561 
846, 16738.7253859237 
847, 16505.8736915158 
848, 16227.1861482816 
849, 15922.1027741718 
850, 15607.6591610391 
851, 15247.1946576526 
852, 14882.3961008378 
853, 14582.2906728289 
854, 14351.7944495476 
855, 14170.1050101203 
856, 14091.0678136758 
857, 14182.0757154728 
858, 14310.1304467564 
859, 14326.0283616015 
860, 14207.840787605 
861, 14044.3615871876 
862, 13849.4117225459 
863, 13600.6568777574 
864, 13304.0467237547 
865, 13002.9522146941 
866, 12717.9338120806 
867, 12478.7148454626 
868, 12324.4131894215 
869, 12300.5146796267 
870, 12321.9624523454 
871, 12296.4935164155 
872, 12183.8337549217 
873, 12034.0519277732 
874, 11876.1851684551 
875, 11717.9118630398 
876, 11559.9788853886 
877, 11405.5431212821 
878, 11256.2695520369 
879, 11109.8439821477 
880, 10962.6724971142 
881, 10811.1789978084 
882, 10662.4019333527 
883, 10522.3472065836 
884, 10392.4080026267 
885, 10263.2435374359 
886, 10122.5560773389 
887, 9973.54891176808 
888, 9826.09875121464 
889, 9686.34270601312 
890, 9545.97493358141 
891, 9390.45656102936 
892, 9204.5029971378 
893, 8981.72715891659 
894, 8727.96315728457 
895, 8448.34781718604 
896, 8150.90480143321 
897, 7855.28644897863 
898, 7576.19389303801 
899, 7341.55329944804 
900, 7178.88811071235 
901, 7079.22213793845 
902, 7026.39820360444 
903, 6998.41378491511 
904, 6971.18867574564 
905, 6928.74446529637 
906, 6851.66547583249 
907, 6728.56669509319 
908, 6562.25268073631 
909, 6388.25511256512 
910, 6240.42675451233 
911, 6131.55681062027 
912, 6054.30547103359 
913, 5989.11197709557 
914, 5925.55055980266 
915, 5860.8856504919 
916, 5799.58466590142 
917, 5754.28952312249 
918, 5715.14957819572 
919, 5677.27160044882 
920, 5640.29734172853 
921, 5600.2250226254 
922, 5544.94272213603 
923, 5467.31464666851 
924, 5364.60926966219 
925, 5232.24076421736 
926, 5074.5606345027 
927, 4886.97493298492 
928, 4660.42137184284 
929, 4397.69230088357 
930, 4101.7732057947 
931, 3787.62586031421 
932, 3480.36303873182 
933, 3210.83696043434 
934, 2997.0069271505 
935, 2849.75794962876 
936, 2770.5205578635 
937, 2746.33891160095 
938, 2758.88492559969 
939, 2786.08648625675 
940, 2809.65074613966 
941, 2830.8713703694 
942, 2833.35571813618 
943, 2805.2633130496 
944, 2746.26103230303 
945, 2679.11373134641 
946, 2621.39142581169 
947, 2583.72562024169 
948, 2567.35625867829 
949, 2561.31282125326 
950, 2553.17000164482 
951, 2541.52071122531 
952, 2527.69679174094 
953, 2508.11001263972 
954, 2491.38462877341 
955, 2476.6345244572 
956, 2462.51128562365 
957, 2452.24574937174 
958, 2445.10807727105 
959, 2439.81583134692 
960, 2435.84848980055 
961, 2433.99592642721 
962, 2431.61472470615 
963, 2431.45299432678 
964, 2433.94837585108 
965, 2435.41188387634 
966, 2431.43520638271 
967, 2421.97945442469 
968, 2409.06703936263 
969, 2394.83054340053 
970, 2374.79573629827 
971, 2350.15786693697 
972, 2317.49634391296 
973, 2273.17024946042 
974, 2227.85749228197 
975, 2180.31544846862 
976, 2133.33556689723 
977, 2091.06257170065 
978, 2054.56500531791 
979, 2023.29970593699 
980, 1996.81565403174 
981, 1973.12615267588 
982, 1947.21550108453 
983, 1919.54549754433 
984, 1890.2584442199 
985, 1859.27194456525 
986, 1826.11589711729 
987, 1790.90059853517 
988, 1755.09806355073 
989, 1719.0564887859 
990, 1681.76075799432 
991, 1643.26337559929 
992, 1605.85628411432 
993, 1570.33192905958 
994, 1535.43313960956 
995, 1496.90078693814 
996, 1460.17342457461 
997, 1424.70710831201 
998, 1387.7784466767 
999, 1349.68987278685 
1000, 1312.90135303349 
1001, 8092.60674485988 
1002, 8074.29440480786 
1003, 8063.35525916354 
1004, 8048.23515027718 
1005, 8029.20479582965 
1006, 8014.81679680251 
1007, 8011.7156241318 
1008, 8023.89631735021 
1009, 8039.98567571589 
1010, 8069.82253693587 
1011, 8096.6025944274 
1012, 8126.14917463779 
1013, 8159.4149448241 
1014, 8196.38136057859 
1015, 8233.45937275498 
1016, 8271.639343692 
1017, 8304.356966987 
1018, 8332.09331721143 
1019, 8364.57111919044 
1020, 8405.09249433551 
1021, 8446.21759381697 
1022, 8489.44377287272 
1023, 8536.26505116452 
1024, 8586.45993088165 
1025, 8636.38593033417 
1026, 8688.50013248657 
1027, 8737.28871278942 
1028, 8784.17486812787 
1029, 8826.44034729694 
1030, 8869.72003387257 
1031, 8917.87339372703 
1032, 8958.70575043504 
1033, 8998.26037899379 
1034, 9035.94557073866 
1035, 9073.02436722064 
1036, 9106.7133675619 
1037, 9144.19831996759 
1038, 9181.00893140711 
1039, 9215.02239633988 
1040, 9239.82608688618 
1041, 9262.17788142315 
1042, 9287.52281829656 
1043, 9305.67099355696 
1044, 9324.84174104983 
1045, 9345.19644084505 
1046, 9363.64852907161 
1047, 9391.11427304285 
1048, 9423.83803089857 
1049, 9461.32901306903 
1050, 9499.70834350848 
1051, 9533.77933225984 
1052, 9561.99893480336 
1053, 9593.4087286171 
1054, 9624.78192316645 
1055, 9657.42690011514 
1056, 9690.9157298882 
1057, 9725.9922819256 
1058, 9770.3734101234 
1059, 9828.97755454382 
1060, 9892.87487464551 
1061, 9968.02435564574 
1062, 10045.7369571394 
1063, 10130.7226089599 
1064, 10214.6696374248 
1065, 10304.0569630385 
1066, 10403.2092670174 
1067, 10503.7910515114 
1068, 10619.2978699706 
1069, 10747.8421173249 
1070, 10880.766128336 
1071, 11027.971515996 
1072, 11169.6636470994 
1073, 11311.3115748572 
1074, 11461.6483434698 
1075, 11598.8524760805 
1076, 11729.5906365905 
1077, 11860.1153285388 
1078, 11974.7818502535 
1079, 12077.2513651627 
1080, 12170.2664888527 
1081, 12251.1730581853 
1082, 12330.5856757096 
1083, 12401.3913826404 
1084, 12465.6542837032 
1085, 12531.4209703641 
1086, 12593.6187583682 
1087, 12657.099225106 
1088, 12705.6880561844 
1089, 12756.1773841567 
1090, 12783.0877560286 
1091, 12791.9143908915 
1092, 12790.3557942998 
1093, 12769.9757694596 
1094, 12744.1865469974 
1095, 12715.4220135201 
1096, 12683.378310625 
1097, 12655.2848082916 
1098, 12626.1341876025 
1099, 12597.3823991485 
1100, 12568.4979838184 
1101, 12536.8803293397 
1102, 12512.6073529704 
1103, 12471.7740877359 
1104, 12431.1893953568 
1105, 12371.6685819259 
1106, 12294.127669231 
1107, 12183.9261022571 
1108, 12035.1216165699 
1109, 11848.8427008882 
1110, 11588.4079656072 
1111, 11272.6327465884 
1112, 10896.9166013326 
1113, 10430.0628631206 
1114, 9971.11683884123 
1115, 9434.99578387658 
1116, 8955.60034365865 
1117, 8438.62489043162 
1118, 8004.18358836716 
1119, 7609.36280313997 
1120, 7249.37155724091 
1121, 6952.6565886053 
1122, 6711.9337094117 
1123, 6533.39504190099 
1124, 6418.48052143275 
1125, 6368.06156081054 
1126, 6412.45746162464 
1127, 6450.01013932384 
1128, 6547.38102440738 
1129, 6635.78944622418 
1130, 6745.70642389639 
1131, 6858.39083986888 
1132, 6970.81563495117 
1133, 7113.51823317048 
1134, 7269.40407212214 
1135, 7436.11923119757 
1136, 7675.97328818605 
1137, 7919.45735144952 
1138, 8155.85803470806 
1139, 8377.22769241068 
1140, 8519.3970483263 
1141, 8615.20627645218 
1142, 8656.43573740806 
1143, 8609.06556469449 
1144, 8586.81682321376 
1145, 8462.98787814202 
1146, 8458.74022085064 
1147, 8468.57908272999 
1148, 8556.03764489624 
1149, 8722.70269772913 
1150, 8933.44075988658 
1151, 9207.59003414773 
1152, 9511.50691302831 
1153, 9824.6638791112 
1154, 10191.1799232463 
1155, 10527.0777725031 
1156, 10876.6722658128 
1157, 11198.2559699383 
1158, 11518.522245308 
1159, 11813.4741949912 
1160, 12090.8446263813 
1161, 12345.688318315 
1162, 12589.9966527892 
1163, 12802.2061533621 
1164, 12986.6847136563 
1165, 13149.0629977652 
1166, 13286.3710931689 
1167, 13394.218440809 
1168, 13474.1799728987 
1169, 13527.0839643403 
1170, 13554.0153487891 
1171, 13543.2439528652 
1172, 13528.6185909486 
1173, 13489.3314911704 
1174, 13444.49056021 
1175, 13387.2043062474 
1176, 13320.0044974754 
1177, 13232.7458929276 
