Wavelength,0212202100097.asd
350, 137.42034690186 
351, 143.260949821069 
352, 150.504901727475 
353, 156.582351650634 
354, 161.490785763796 
355, 166.620266356248 
356, 172.829037147301 
357, 177.975538992857 
358, 184.077832007666 
359, 191.252630849212 
360, 198.847765725764 
361, 207.663843909662 
362, 217.102482362456 
363, 226.861934652905 
364, 237.135377224322 
365, 250.053917922382 
366, 262.18588167216 
367, 271.182301243177 
368, 278.739891294858 
369, 283.758659321911 
370, 285.791270088998 
371, 285.103342555043 
372, 283.240718143351 
373, 283.17439849406 
374, 284.309205027238 
375, 284.124456418372 
376, 286.258494665617 
377, 287.557311133617 
378, 286.713654590648 
379, 285.939706314996 
380, 282.807920752901 
381, 278.920137070061 
382, 275.69834293103 
383, 271.129703649706 
384, 266.232199794395 
385, 262.369632376147 
386, 261.626103857245 
387, 269.314734092815 
388, 278.101259062104 
389, 283.945570459738 
390, 287.596039256666 
391, 291.950671259668 
392, 297.474524869542 
393, 303.249132745027 
394, 305.788420708843 
395, 313.860273018684 
396, 328.640945096292 
397, 349.071454412522 
398, 379.405653209787 
399, 414.468209987209 
400, 450.161719581228 
401, 484.022400025463 
402, 516.71467241262 
403, 542.887862356325 
404, 560.991528836088 
405, 578.206338534636 
406, 590.132396884402 
407, 599.445961602268 
408, 610.709316577919 
409, 626.16934893097 
410, 642.396744291952 
411, 658.656707792673 
412, 676.525145638327 
413, 697.57827722762 
414, 717.103681425924 
415, 732.634387236771 
416, 746.99252612057 
417, 761.206740689062 
418, 776.443036550991 
419, 792.50905541878 
420, 804.097113964743 
421, 817.859642750114 
422, 834.217517112131 
423, 849.055937802304 
424, 863.86435521267 
425, 876.329828349915 
426, 883.559581219908 
427, 882.225919046351 
428, 878.896332576308 
429, 879.627726674161 
430, 889.085620747478 
431, 908.111584908718 
432, 929.476573329135 
433, 957.903709750826 
434, 1004.65566976492 
435, 1054.65168023764 
436, 1094.03760787198 
437, 1119.70199211591 
438, 1145.61047535357 
439, 1172.39472949918 
440, 1197.45710617043 
441, 1219.44340826121 
442, 1248.30565541957 
443, 1280.24309848957 
444, 1310.62293358722 
445, 1335.01282381613 
446, 1355.58640403301 
447, 1373.26361355698 
448, 1391.17769660952 
449, 1417.60950563996 
450, 1438.03146226771 
451, 1448.41921324256 
452, 1450.30850198536 
453, 1451.51098750056 
454, 1447.03562943782 
455, 1438.37156975198 
456, 1433.01519600723 
457, 1434.30897393858 
458, 1438.62029873214 
459, 1441.84765327674 
460, 1442.07136357517 
461, 1439.64964491942 
462, 1436.73614588941 
463, 1434.84905174183 
464, 1428.0634328713 
465, 1416.49041886533 
466, 1402.49661043575 
467, 1390.22220505745 
468, 1380.0095568794 
469, 1372.8527444851 
470, 1369.80295490067 
471, 1372.66350743756 
472, 1375.99607527151 
473, 1380.47064478767 
474, 1388.68697444418 
475, 1395.0005450953 
476, 1400.58446800564 
477, 1407.31605266171 
478, 1417.09927147916 
479, 1430.94031845953 
480, 1447.0375737225 
481, 1462.12654340402 
482, 1471.91026488565 
483, 1473.97857184144 
484, 1464.76092968907 
485, 1442.44904309455 
486, 1421.74536030993 
487, 1411.30797354425 
488, 1418.35194790008 
489, 1450.08829419879 
490, 1490.61246406423 
491, 1525.49695315607 
492, 1546.30369558659 
493, 1564.16181894743 
494, 1583.02905382761 
495, 1605.26984344339 
496, 1630.86269423843 
497, 1647.70492658059 
498, 1655.75551785925 
499, 1657.88964468965 
500, 1657.40530141332 
501, 1659.43790553629 
502, 1667.21084435527 
503, 1682.98288428571 
504, 1710.03512389686 
505, 1744.6350760927 
506, 1780.96890746799 
507, 1811.93665490257 
508, 1840.6362424888 
509, 1866.65847285468 
510, 1891.3795759027 
511, 1923.73262023203 
512, 1951.62002483013 
513, 1971.94842257648 
514, 1986.35823317562 
515, 1991.47672311211 
516, 1991.14298051976 
517, 1990.89489804324 
518, 1996.61728226434 
519, 2033.70063447767 
520, 2102.97334564129 
521, 2191.10483743674 
522, 2269.59666343764 
523, 2334.64920496693 
524, 2385.68644710485 
525, 2424.71047371959 
526, 2452.0209613799 
527, 2471.25895194502 
528, 2495.02245069121 
529, 2555.01805670402 
530, 2628.18175659258 
531, 2690.09222203502 
532, 2720.7649507554 
533, 2730.74519860434 
534, 2742.5624236408 
535, 2768.54238564685 
536, 2807.84645801652 
537, 2833.90210941272 
538, 2842.09804157482 
539, 2836.71617841288 
540, 2828.18614907324 
541, 2822.25624074653 
542, 2827.89913903129 
543, 2852.21719813464 
544, 2877.6377508514 
545, 2897.85972624533 
546, 2910.20450407328 
547, 2915.1356107883 
548, 2913.06227726488 
549, 2910.76740483882 
550, 2914.0262075391 
551, 2916.6502648195 
552, 2917.36047372003 
553, 2915.40959714194 
554, 2910.57608911875 
555, 2905.29815634526 
556, 2891.37631683178 
557, 2863.68121392917 
558, 2826.23994617313 
559, 2789.94110774035 
560, 2764.34571530302 
561, 2755.23830459657 
562, 2754.80760577959 
563, 2748.77232486608 
564, 2730.60566654409 
565, 2703.66812049906 
566, 2669.86531647103 
567, 2637.41843748326 
568, 2611.42037837985 
569, 2583.34975900622 
570, 2552.43583754975 
571, 2523.77493639805 
572, 2505.8732487427 
573, 2501.55769366626 
574, 2496.31059566015 
575, 2480.22649455194 
576, 2454.27564302089 
577, 2432.53143622868 
578, 2420.71837168246 
579, 2420.35867724925 
580, 2429.78207367486 
581, 2450.29529117463 
582, 2475.81069805468 
583, 2493.92167127132 
584, 2506.94417693899 
585, 2505.93828479897 
586, 2487.33993782489 
587, 2464.06197079132 
588, 2436.08610017673 
589, 2399.65203174956 
590, 2354.43469734795 
591, 2334.19257558909 
592, 2338.10233458516 
593, 2350.89712990406 
594, 2344.0605803265 
595, 2324.98326409161 
596, 2300.59790154059 
597, 2275.95655919085 
598, 2247.17468303859 
599, 2215.66757038189 
600, 2183.23771566616 
601, 2152.25728588756 
602, 2126.92646155727 
603, 2109.27969500323 
604, 2099.24114780115 
605, 2094.76524467524 
606, 2084.38697920858 
607, 2066.90812409587 
608, 2045.85987068917 
609, 2025.25877452468 
610, 2007.34051753324 
611, 1992.44426693612 
612, 1979.16906325682 
613, 1967.1528377357 
614, 1952.99099136664 
615, 1936.69499829339 
616, 1927.53913706289 
617, 1922.87180837643 
618, 1925.17460235552 
619, 1936.99289526071 
620, 1948.70555383083 
621, 1954.79987690499 
622, 1951.94774410819 
623, 1939.08188137259 
624, 1924.55363364199 
625, 1912.43590169171 
626, 1903.77804530421 
627, 1894.63489310949 
628, 1886.34353669534 
629, 1879.18348890864 
630, 1873.74796703063 
631, 1879.36477485453 
632, 1890.64388506412 
633, 1902.75758483077 
634, 1915.24806754785 
635, 1927.39881008975 
636, 1936.84371283968 
637, 1941.99815298627 
638, 1946.76834033366 
639, 1946.43742455252 
640, 1939.22616986426 
641, 1926.77601207949 
642, 1918.3680533895 
643, 1914.30932079342 
644, 1911.85726972241 
645, 1905.954457534 
646, 1896.46787544104 
647, 1884.01628713693 
648, 1870.29338702843 
649, 1858.39613691284 
650, 1850.48845257728 
651, 1848.16957482138 
652, 1851.92702603878 
653, 1850.25721403551 
654, 1832.34068554479 
655, 1795.79302952007 
656, 1754.35294253277 
657, 1725.44856332501 
658, 1729.69144877096 
659, 1778.43657100837 
660, 1828.96490491958 
661, 1859.68300214182 
662, 1869.37471621427 
663, 1878.3403168474 
664, 1885.11653853631 
665, 1890.68544301528 
666, 1896.8988142195 
667, 1908.57482601317 
668, 1919.89099814933 
669, 1930.17208215768 
670, 1941.38919327425 
671, 1951.84439858957 
672, 1962.95760475312 
673, 1977.40516248154 
674, 1999.05438804981 
675, 2021.81981461425 
676, 2045.71985326388 
677, 2071.91137819362 
678, 2099.74881052905 
679, 2127.59929065354 
680, 2157.12586083962 
681, 2191.07550071971 
682, 2223.73989695031 
683, 2254.55605057527 
684, 2274.50313422496 
685, 2262.19287085343 
686, 2207.67205831349 
687, 2119.50008007825 
688, 2030.31238312021 
689, 2020.01679286061 
690, 2109.40425249982 
691, 2263.89164920655 
692, 2415.66174035607 
693, 2562.7523367069 
694, 2691.46447597078 
695, 2798.89242670767 
696, 2897.33233622498 
697, 2996.67123722369 
698, 3090.07125821756 
699, 3170.16792746561 
700, 3245.92732793315 
701, 3322.18179198328 
702, 3406.92900789872 
703, 3508.78421164672 
704, 3627.19803368437 
705, 3752.84733525513 
706, 3875.98358171468 
707, 3988.15764289391 
708, 4101.65914754352 
709, 4217.04355552291 
710, 4333.77863439001 
711, 4459.18434862171 
712, 4584.37932114305 
713, 4707.04112139464 
714, 4826.30602546088 
715, 4926.26912454417 
716, 4988.78266242183 
717, 5003.95729309341 
718, 4973.06586243846 
719, 4966.02693678155 
720, 5048.26027256987 
721, 5248.6395053021 
722, 5523.76222347443 
723, 5756.86347366301 
724, 5908.75357111635 
725, 6001.60192852207 
726, 6131.16153464257 
727, 6285.82353969981 
728, 6446.37014137963 
729, 6598.24093970582 
730, 6776.01346481278 
731, 6991.53468242531 
732, 7242.48741029016 
733, 7511.51434242109 
734, 7767.91916731597 
735, 7987.19575362084 
736, 8157.07014817817 
737, 8297.91743558643 
738, 8429.61190558977 
739, 8557.71601078384 
740, 8676.67525916499 
741, 8804.68616688499 
742, 8950.28134632497 
743, 9114.98358164584 
744, 9292.78629855965 
745, 9465.47190524113 
746, 9630.47740568935 
747, 9789.90630435417 
748, 9941.99088708043 
749, 10079.2379384447 
750, 10206.4259263224 
751, 10337.4696280715 
752, 10490.4284793697 
753, 10655.5144572502 
754, 10819.4495892788 
755, 10968.2462773362 
756, 11067.9284178309 
757, 10974.7809350876 
758, 10459.142215488 
759, 9133.38696254587 
760, 7097.39657760674 
761, 5071.77802019157 
762, 3939.73385686717 
763, 3979.49582298738 
764, 4662.47509891596 
765, 5720.04479720094 
766, 7120.31334770656 
767, 8660.66026483795 
768, 10019.8796153977 
769, 10995.5911929005 
770, 11577.6397440109 
771, 11903.424747784 
772, 12071.5615845422 
773, 12158.8182062448 
774, 12214.2661321872 
775, 12242.5085801169 
776, 12256.6873318231 
777, 12267.6913890268 
778, 12266.3673716007 
779, 12251.52139253 
780, 12231.1800308422 
781, 12218.6534980811 
782, 12201.5134976369 
783, 12170.9095546986 
784, 12127.4696026188 
785, 12084.9382076998 
786, 12039.1932559042 
787, 11978.3682873985 
788, 11894.0369684547 
789, 11792.6020083556 
790, 11677.7999368258 
791, 11556.5152006192 
792, 11437.078817351 
793, 11325.674834737 
794, 11233.9063771102 
795, 11173.7299426693 
796, 11151.6637927619 
797, 11135.9691452664 
798, 11103.7572559283 
799, 11041.1663614383 
800, 10945.2856606839 
801, 10838.9609214334 
802, 10741.1259107569 
803, 10659.0663117508 
804, 10578.1086756757 
805, 10506.5072183871 
806, 10440.4391492934 
807, 10368.6580711345 
808, 10270.2798818782 
809, 10152.0350072034 
810, 10020.3943706431 
811, 9877.49272827541 
812, 9707.30298447135 
813, 9482.57609708432 
814, 9199.12985373448 
815, 8880.02097999345 
816, 8580.80668018964 
817, 8346.6950770475 
818, 8204.65951791362 
819, 8158.79077276895 
820, 8147.79353064207 
821, 8121.83483603245 
822, 8059.35527924657 
823, 7987.1640946447 
824, 7938.94708747006 
825, 7945.97236743822 
826, 8001.06961145239 
827, 7986.47895838135 
828, 7900.56277301586 
829, 7783.43769218429 
830, 7691.48267760767 
831, 7631.10170832766 
832, 7586.89434727009 
833, 7551.6908635748 
834, 7527.12285785175 
835, 7515.35423938524 
836, 7509.92101357518 
837, 7498.61214389764 
838, 7465.44058220627 
839, 7411.9507310688 
840, 7347.78621746545 
841, 7279.47072399045 
842, 7204.96041512785 
843, 7127.50583035031 
844, 7050.48845575908 
845, 6975.81677396643 
846, 6903.85576143213 
847, 6815.8606725923 
848, 6708.4102950731 
849, 6586.87863673929 
850, 6465.2712224844 
851, 6322.52323144575 
852, 6174.55111978169 
853, 6051.64908293368 
854, 5960.31652449155 
855, 5886.57422024524 
856, 5853.64903735799 
857, 5894.69625333697 
858, 5957.57785586054 
859, 5975.98491896404 
860, 5937.21058995742 
861, 5876.70893793478 
862, 5805.12078288381 
863, 5711.01708586803 
864, 5594.62706574881 
865, 5473.09770264103 
866, 5359.01729047566 
867, 5263.25630316961 
868, 5201.49127781728 
869, 5194.75067133211 
870, 5213.14531333233 
871, 5212.97250311237 
872, 5173.43902773967 
873, 5118.13164284241 
874, 5058.80516929707 
875, 4999.02992694925 
876, 4939.35526323385 
877, 4880.71260415745 
878, 4824.85494085619 
879, 4768.91331296896 
880, 4710.61060801102 
881, 4653.42439390519 
882, 4595.66230434444 
883, 4540.36570555013 
884, 4490.04829945611 
885, 4441.07204119353 
886, 4386.57266018443 
887, 4327.76475268402 
888, 4269.09143564982 
889, 4211.99092084443 
890, 4155.79753879738 
891, 4092.69962487341 
892, 4013.32250873113 
893, 3917.19130119599 
894, 3804.15143917628 
895, 3677.83349980659 
896, 3544.59312881519 
897, 3411.07287835016 
898, 3283.27272585429 
899, 3176.01817578885 
900, 3104.71236044498 
901, 3062.96146952719 
902, 3045.29288251949 
903, 3039.96247504255 
904, 3032.50601569728 
905, 3016.59564995382 
906, 2986.46320637561 
907, 2935.01430216292 
908, 2859.21322677859 
909, 2778.48528310605 
910, 2710.74874766163 
911, 2662.82550526274 
912, 2630.63438974933 
913, 2601.69304623389 
914, 2573.80372943472 
915, 2547.46342612841 
916, 2524.68351826008 
917, 2507.21889561579 
918, 2493.97512998281 
919, 2482.77166400721 
920, 2470.86589935553 
921, 2456.13428264642 
922, 2437.41688830721 
923, 2409.13347433376 
924, 2364.22707608736 
925, 2304.98279869228 
926, 2233.17327505069 
927, 2147.74419790335 
928, 2045.75251038727 
929, 1925.41605007186 
930, 1786.33697920182 
931, 1638.64674102582 
932, 1497.83732399362 
933, 1369.3581130382 
934, 1266.53660638394 
935, 1198.0649714386 
936, 1165.28529028757 
937, 1156.5803618328 
938, 1164.83821145058 
939, 1180.9624551335 
940, 1196.2134641256 
941, 1206.34683336825 
942, 1210.47534633749 
943, 1202.97505382622 
944, 1179.79062661552 
945, 1146.85374948408 
946, 1121.25443079044 
947, 1107.13900572581 
948, 1101.64577921467 
949, 1101.2406001175 
950, 1099.04286963861 
951, 1095.92626514348 
952, 1093.74054367095 
953, 1089.40651000947 
954, 1083.08733416637 
955, 1078.52980604373 
956, 1077.28331093828 
957, 1074.83892147921 
958, 1073.98557625835 
959, 1074.37730473192 
960, 1075.85396128917 
961, 1079.36873116928 
962, 1081.02628937905 
963, 1083.85090858866 
964, 1089.83053790738 
965, 1097.41258559797 
966, 1099.27119657519 
967, 1100.23818343208 
968, 1101.02351945389 
969, 1097.5172329286 
970, 1090.75772338285 
971, 1082.7756393502 
972, 1072.06080360177 
973, 1055.79546102305 
974, 1036.83779759572 
975, 1017.04390944238 
976, 997.707608254217 
977, 980.106089134627 
978, 966.792378426935 
979, 956.153930083869 
980, 945.780169698745 
981, 934.967083741196 
982, 927.4737276744 
983, 918.218130356906 
984, 907.550602966141 
985, 896.265585499834 
986, 883.503613019435 
987, 868.799140642959 
988, 854.448775075363 
989, 840.272439138278 
990, 823.662986631996 
991, 808.601607261815 
992, 792.340356142423 
993, 775.083575776842 
994, 759.064146325543 
995, 743.169518168617 
996, 726.950832984535 
997, 710.142920014848 
998, 692.6802525814 
999, 674.51826605937 
1000, 658.361363562066 
1001, 4229.77691160717 
1002, 4228.02752576073 
1003, 4228.53788938688 
1004, 4228.85984990109 
1005, 4235.68897201679 
1006, 4245.43743340619 
1007, 4253.75138612869 
1008, 4266.40808399173 
1009, 4281.85327300138 
1010, 4300.2911936777 
1011, 4319.12625846027 
1012, 4340.36974144515 
1013, 4364.38571775295 
1014, 4389.36801099159 
1015, 4412.65738668269 
1016, 4433.60626196697 
1017, 4457.34804030009 
1018, 4481.66847833752 
1019, 4503.25062386557 
1020, 4526.60829171259 
1021, 4551.61403997207 
1022, 4577.52530704082 
1023, 4601.55518079811 
1024, 4629.9312526278 
1025, 4663.207922793 
1026, 4695.0581207747 
1027, 4721.79369569687 
1028, 4745.10324213096 
1029, 4768.08433297085 
1030, 4790.41299920652 
1031, 4807.76889611357 
1032, 4822.57750479441 
1033, 4837.57403473932 
1034, 4847.24092001906 
1035, 4858.79049576901 
1036, 4870.99480403897 
1037, 4886.4263055647 
1038, 4897.11781317365 
1039, 4908.21038249325 
1040, 4915.0331069654 
1041, 4917.57154813632 
1042, 4923.33912203605 
1043, 4925.27809606764 
1044, 4926.05194206775 
1045, 4933.00307208852 
1046, 4939.80886858328 
1047, 4945.34793903728 
1048, 4951.33975099761 
1049, 4956.96270045729 
1050, 4959.92867807925 
1051, 4964.19227040722 
1052, 4966.30040348635 
1053, 4969.652779922 
1054, 4975.04421592589 
1055, 4977.94406227062 
1056, 4981.30501419841 
1057, 4983.70947011935 
1058, 4988.10567333507 
1059, 4995.75490076264 
1060, 5008.43230734982 
1061, 5026.8914855682 
1062, 5048.46115234329 
1063, 5074.70568236659 
1064, 5101.62095715359 
1065, 5133.56809430698 
1066, 5164.47497254805 
1067, 5201.42138598787 
1068, 5245.62774972903 
1069, 5288.00615543607 
1070, 5337.29806760063 
1071, 5390.21442507135 
1072, 5440.45357365125 
1073, 5492.90124387665 
1074, 5549.20054017109 
1075, 5602.56089645103 
1076, 5656.53015655708 
1077, 5710.26441210069 
1078, 5756.01998708349 
1079, 5793.05673209788 
1080, 5815.68192390362 
1081, 5832.76993916849 
1082, 5854.45087226778 
1083, 5873.87707895306 
1084, 5895.13773844723 
1085, 5916.75844219945 
1086, 5931.40361247479 
1087, 5939.50662421352 
1088, 5946.26334660966 
1089, 5955.49897161958 
1090, 5951.05194487944 
1091, 5936.86896629992 
1092, 5917.60482403705 
1093, 5899.05672438648 
1094, 5876.43384866194 
1095, 5857.1057401179 
1096, 5839.98696518814 
1097, 5814.24485507914 
1098, 5782.32528127717 
1099, 5752.44938853052 
1100, 5719.89069359888 
1101, 5688.69089987772 
1102, 5660.48944561052 
1103, 5627.67707968366 
1104, 5598.08695969951 
1105, 5557.99293973168 
1106, 5511.37418300927 
1107, 5448.88928608433 
1108, 5361.36217933699 
1109, 5259.80063698214 
1110, 5123.90093402116 
1111, 4959.24067041004 
1112, 4772.02977563903 
1113, 4546.42090157071 
1114, 4322.98781563251 
1115, 4066.35384238761 
1116, 3835.08484604222 
1117, 3588.06738583287 
1118, 3376.65735502873 
1119, 3181.58553539935 
1120, 3001.19168205611 
1121, 2856.92996673296 
1122, 2738.29865698729 
1123, 2653.38002925662 
1124, 2593.66118195267 
1125, 2558.57229274305 
1126, 2559.29502999838 
1127, 2563.11257231312 
1128, 2595.14430029615 
1129, 2623.23330173986 
1130, 2660.71765415981 
1131, 2701.09535839633 
1132, 2743.99187746797 
1133, 2795.74316551518 
1134, 2851.13555484368 
1135, 2918.51066149724 
1136, 3006.96791636805 
1137, 3096.45107751637 
1138, 3186.48400254304 
1139, 3267.6821889279 
1140, 3317.62889755206 
1141, 3349.72600724781 
1142, 3356.66066327087 
1143, 3329.16302026265 
1144, 3306.65676157518 
1145, 3235.29752616022 
1146, 3218.01522071203 
1147, 3205.44729767322 
1148, 3225.73987011894 
1149, 3280.94718569444 
1150, 3355.56765340612 
1151, 3453.74300902062 
1152, 3560.78593173605 
1153, 3680.10277326764 
1154, 3825.54720772922 
1155, 3957.54943470718 
1156, 4100.12018964866 
1157, 4229.82028151305 
1158, 4356.51455964815 
1159, 4474.84482447777 
1160, 4593.18807391132 
1161, 4693.35998903843 
1162, 4783.07355815205 
1163, 4863.47092275459 
1164, 4930.40129204946 
1165, 4987.05311197753 
1166, 5039.62839730139 
1167, 5076.80219458718 
1168, 5100.54868175292 
1169, 5108.37556006005 
1170, 5112.37407989807 
1171, 5102.53066575198 
1172, 5090.74627946831 
1173, 5073.77496301939 
1174, 5050.76419770875 
1175, 5018.284951003 
1176, 4985.402190814 
