Wavelength,0212202100144.asd
350, 2683.84312917471 
351, 2822.45900914082 
352, 2952.59561746992 
353, 3059.93237155682 
354, 3164.15062118582 
355, 3274.74851944635 
356, 3393.57448285685 
357, 3508.88919506395 
358, 3628.67290689925 
359, 3757.11040104641 
360, 3899.04239779563 
361, 4072.13863101233 
362, 4271.25339328092 
363, 4486.87073539042 
364, 4707.5280406537 
365, 4931.47622168989 
366, 5145.4712327813 
367, 5333.01723163476 
368, 5476.2215749247 
369, 5560.43382846093 
370, 5589.97439753117 
371, 5581.25155587391 
372, 5557.71981730555 
373, 5548.39226542137 
374, 5557.96326322324 
375, 5573.07109603446 
376, 5587.05014269448 
377, 5595.96173793215 
378, 5586.78035471736 
379, 5534.55211402996 
380, 5468.9703104811 
381, 5395.72074520125 
382, 5312.62698366282 
383, 5211.15547414724 
384, 5106.77158952562 
385, 5033.55736251912 
386, 5033.02669815163 
387, 5135.99247082731 
388, 5285.85691991718 
389, 5417.94341392091 
390, 5475.24990357933 
391, 5538.69695802167 
392, 5601.30710400021 
393, 5650.31456355122 
394, 5689.79441562347 
395, 5806.23890066333 
396, 6038.67757962909 
397, 6401.56158250902 
398, 6909.68369399703 
399, 7486.82457909642 
400, 8078.76058770099 
401, 8656.62417297551 
402, 9204.90511132403 
403, 9657.16910815856 
404, 9984.93857561452 
405, 10238.6320720554 
406, 10437.5011923159 
407, 10615.2879770615 
408, 10812.3733904029 
409, 11079.0513823029 
410, 11401.040311729 
411, 11757.5542749158 
412, 12125.0207940906 
413, 12493.5988854047 
414, 12857.5736511422 
415, 13205.578636812 
416, 13513.4949910166 
417, 13805.0253570377 
418, 14103.5315583409 
419, 14416.071881712 
420, 14686.4801685477 
421, 14959.1608791565 
422, 15257.5143077515 
423, 15580.6014941414 
424, 15878.2375055408 
425, 16112.75579655 
426, 16251.1390019845 
427, 16260.1044006627 
428, 16198.6609657564 
429, 16212.3321088728 
430, 16416.3117274489 
431, 16706.560791418 
432, 17092.9857704187 
433, 17665.2820618328 
434, 18532.4791439516 
435, 19449.9611799065 
436, 20150.1601253924 
437, 20580.5056167169 
438, 21040.5934178283 
439, 21511.8885346068 
440, 21955.8531799355 
441, 22358.8720689474 
442, 22877.3965677831 
443, 23423.8640718605 
444, 23926.539269584 
445, 24337.7210760169 
446, 24665.7940620828 
447, 24962.1965324961 
448, 25279.8578535915 
449, 25669.9022542929 
450, 25999.3960529959 
451, 26177.5559004456 
452, 26169.8588133947 
453, 26100.9806559116 
454, 25954.6979519311 
455, 25770.5369786026 
456, 25639.0546097608 
457, 25610.5037521264 
458, 25620.1076197292 
459, 25601.4738302303 
460, 25533.8376529131 
461, 25431.8686671826 
462, 25320.8205468388 
463, 25214.4999747569 
464, 25047.6436287245 
465, 24789.3025488628 
466, 24471.1525783527 
467, 24183.9519539723 
468, 23938.6489054584 
469, 23753.2495856808 
470, 23638.4096014274 
471, 23598.9441994694 
472, 23572.459444109 
473, 23563.3437468332 
474, 23595.3544495423 
475, 23588.4528335749 
476, 23563.3801558742 
477, 23546.9500615903 
478, 23561.0077845709 
479, 23637.79377617 
480, 23745.0271153489 
481, 23823.5695650678 
482, 23806.2001613915 
483, 23631.0028508267 
484, 23259.6393019403 
485, 22702.2014299444 
486, 22163.2523569824 
487, 21782.1854836373 
488, 21670.8248495297 
489, 21927.072856103 
490, 22332.7733769435 
491, 22665.4829291663 
492, 22782.2644797939 
493, 22827.8149917567 
494, 22893.201373333 
495, 23021.4490374722 
496, 23199.5611083936 
497, 23254.6128286656 
498, 23189.1440075407 
499, 23042.6052838084 
500, 22847.7274016208 
501, 22696.6562399015 
502, 22634.0290390164 
503, 22683.4076229249 
504, 22893.9257413352 
505, 23186.4635736332 
506, 23483.8926546898 
507, 23724.3386842623 
508, 23906.4115303689 
509, 24049.6018120747 
510, 24185.1664352333 
511, 24366.0978392807 
512, 24491.2905308781 
513, 24515.5563355364 
514, 24429.2691695668 
515, 24229.635555251 
516, 23958.5965660941 
517, 23692.8066673221 
518, 23541.5644253123 
519, 23742.8860457789 
520, 24317.3036707769 
521, 25126.8435324975 
522, 25800.9360462067 
523, 26301.4272541917 
524, 26651.8858741725 
525, 26916.5097572657 
526, 27029.7480108486 
527, 27074.7118886158 
528, 27216.7242187418 
529, 27760.8059068601 
530, 28470.5164794382 
531, 29070.2001428217 
532, 29333.4397191074 
533, 29419.1598208629 
534, 29550.4032592642 
535, 29846.8021904213 
536, 30298.3517973302 
537, 30621.965100695 
538, 30772.2245529347 
539, 30793.9761121509 
540, 30782.1354914148 
541, 30808.0822170352 
542, 30964.9104916033 
543, 31323.6277092213 
544, 31738.1370102453 
545, 32100.5763208541 
546, 32352.5415625068 
547, 32498.8567159358 
548, 32595.7888030695 
549, 32709.170200704 
550, 32879.9833229409 
551, 33052.6282344824 
552, 33187.5483254259 
553, 33288.1159939764 
554, 33390.4565656805 
555, 33468.8914385417 
556, 33439.3410526789 
557, 33255.259580014 
558, 32951.1289692629 
559, 32687.8455679125 
560, 32565.8749190578 
561, 32624.6177172415 
562, 32773.2402880468 
563, 32857.0721842729 
564, 32802.6960716804 
565, 32639.8871482616 
566, 32412.0359236505 
567, 32178.2639491095 
568, 31974.9693340158 
569, 31770.2496717331 
570, 31505.1116695594 
571, 31254.2690510271 
572, 31163.3169376644 
573, 31191.4494317059 
574, 31182.9504093468 
575, 31039.6269820899 
576, 30777.1021795317 
577, 30537.716919561 
578, 30414.1954630267 
579, 30455.8606237645 
580, 30623.4014803105 
581, 30910.7734045374 
582, 31256.7325653777 
583, 31549.9170624272 
584, 31736.0843414661 
585, 31735.0602739466 
586, 31535.0964416729 
587, 31279.0628209658 
588, 30957.7006137909 
589, 30525.7502639315 
590, 29990.2893691376 
591, 29800.1457308426 
592, 29940.248375057 
593, 30199.3690842191 
594, 30185.7064762654 
595, 30034.1867506127 
596, 29822.3532542338 
597, 29602.739370531 
598, 29362.6291926437 
599, 29065.8210259894 
600, 28738.2942568537 
601, 28449.4705735083 
602, 28227.0598737968 
603, 28107.7974433579 
604, 28089.8672416173 
605, 28117.1212177602 
606, 28054.7884197277 
607, 27895.9388939215 
608, 27691.9802262801 
609, 27494.8744221465 
610, 27307.0591496486 
611, 27135.7160893169 
612, 26992.2830415843 
613, 26842.9335173062 
614, 26665.6558189633 
615, 26468.4350319474 
616, 26318.0473269808 
617, 26224.8218407335 
618, 26224.3545730359 
619, 26336.8333383609 
620, 26453.6465026862 
621, 26464.4560143633 
622, 26332.1741196103 
623, 26109.4675140014 
624, 25856.5056035542 
625, 25614.0088228637 
626, 25402.8717974807 
627, 25213.1766978535 
628, 25024.0432396192 
629, 24845.08165344 
630, 24714.2348952094 
631, 24726.6543223596 
632, 24818.148409587 
633, 24929.9812771955 
634, 25052.0224888514 
635, 25146.515093763 
636, 25210.9846854227 
637, 25253.1539149614 
638, 25267.4862401224 
639, 25228.769853298 
640, 25116.9474832645 
641, 24927.6102606505 
642, 24782.6391740222 
643, 24693.9448510145 
644, 24630.8528270255 
645, 24524.3657307767 
646, 24359.5853786691 
647, 24152.8147342467 
648, 23941.6014131703 
649, 23770.8857459835 
650, 23642.075152191 
651, 23575.8021839203 
652, 23605.6643372095 
653, 23552.8415724905 
654, 23290.4918236901 
655, 22796.6484539515 
656, 22224.6593184338 
657, 21810.8942846357 
658, 21815.9554002029 
659, 22375.7478293244 
660, 22942.7146051807 
661, 23266.9984980585 
662, 23332.8655392122 
663, 23365.9121013821 
664, 23340.3851911955 
665, 23299.1712760013 
666, 23280.4256829593 
667, 23283.4990042211 
668, 23272.3045585037 
669, 23246.4386636449 
670, 23222.1767456478 
671, 23173.2955086033 
672, 23114.470521452 
673, 23073.0093050706 
674, 23086.456806111 
675, 23114.0575153782 
676, 23132.4168176717 
677, 23133.2697713471 
678, 23141.3150084767 
679, 23141.9634798289 
680, 23133.2474041178 
681, 23119.522799206 
682, 23097.3742164563 
683, 23038.5497552592 
684, 22840.4603607376 
685, 22304.3506543704 
686, 21362.3905266086 
687, 20099.3487176538 
688, 18821.3315407339 
689, 18289.944378369 
690, 18674.0667278409 
691, 19621.1149961858 
692, 20469.7438443709 
693, 21203.0902399844 
694, 21727.8358433225 
695, 22042.693045454 
696, 22268.813920971 
697, 22464.673223511 
698, 22595.8104791504 
699, 22617.2622656518 
700, 22551.6160036816 
701, 22487.5146511915 
702, 22485.2632729643 
703, 22577.3751483168 
704, 22762.4833719069 
705, 22978.0066623138 
706, 23161.9293861486 
707, 23265.6953188614 
708, 23350.8561558834 
709, 23427.8311363687 
710, 23494.3312019822 
711, 23555.8058482034 
712, 23595.9653145974 
713, 23603.073317582 
714, 23560.2708755227 
715, 23415.4089061517 
716, 23065.9242188257 
717, 22467.1448315099 
718, 21655.99858114 
719, 20988.1012138196 
720, 20744.4706443617 
721, 21027.1275433818 
722, 21616.0423838212 
723, 22018.6076434552 
724, 22065.9072942114 
725, 21850.6558344174 
726, 21792.4378379859 
727, 21854.0212746289 
728, 21954.6505470524 
729, 22020.6198645993 
730, 22176.5885199252 
731, 22455.8671419385 
732, 22842.4377294753 
733, 23270.9885689411 
734, 23645.4978280955 
735, 23887.3694241124 
736, 23959.472930302 
737, 23938.6737532796 
738, 23904.2219603319 
739, 23876.5880178758 
740, 23828.7706706978 
741, 23814.8512289032 
742, 23847.3022186529 
743, 23919.8731943404 
744, 24010.585972653 
745, 24071.2470982091 
746, 24093.7482939298 
747, 24083.9363671473 
748, 24041.9683361296 
749, 23953.5390799581 
750, 23834.9791227002 
751, 23724.2643865126 
752, 23661.279004818 
753, 23633.5655826011 
754, 23616.0001917111 
755, 23575.114504445 
756, 23442.0710755793 
757, 22930.1657399564 
758, 21582.0241073595 
759, 18621.0491562519 
760, 14286.2217490351 
761, 10044.8069647292 
762, 7664.82715436314 
763, 7638.13054968403 
764, 8871.85809373416 
765, 10807.6857572437 
766, 13375.0769420061 
767, 16171.8587198039 
768, 18597.4466713231 
769, 20280.3502446825 
770, 21211.5898102489 
771, 21661.4365735099 
772, 21825.305255461 
773, 21850.8716969297 
774, 21819.4688897442 
775, 21744.9656690634 
776, 21653.3027396273 
777, 21563.6245101278 
778, 21453.5226773194 
779, 21326.5128663805 
780, 21198.3101997621 
781, 21089.6528499154 
782, 20975.9889207885 
783, 20844.9411086066 
784, 20697.6542118643 
785, 20552.2737654629 
786, 20405.0864151578 
787, 20235.511713278 
788, 20028.0571765245 
789, 19791.7926198116 
790, 19544.2105544382 
791, 19296.358539181 
792, 19056.319851647 
793, 18830.8554855134 
794, 18646.693700612 
795, 18519.7571800522 
796, 18449.6555235078 
797, 18394.2249571784 
798, 18313.3306073049 
799, 18184.3035785344 
800, 18007.5387334604 
801, 17814.2990697696 
802, 17634.8526816788 
803, 17483.4945335325 
804, 17342.6559430484 
805, 17220.6793933756 
806, 17109.3412197867 
807, 16988.9252377679 
808, 16823.1186866955 
809, 16619.7394694223 
810, 16390.5754710955 
811, 16141.8190526752 
812, 15842.4449712622 
813, 15446.5785766361 
814, 14950.5842441767 
815, 14399.5623112218 
816, 13893.1812628765 
817, 13504.4875313033 
818, 13277.7919286103 
819, 13223.9780291299 
820, 13227.372477935 
821, 13197.4567056645 
822, 13097.4441696646 
823, 12981.1633939325 
824, 12907.1232279272 
825, 12929.6611195889 
826, 13035.9754043864 
827, 13020.9857136974 
828, 12881.928702383 
829, 12688.6261870049 
830, 12539.9053754577 
831, 12452.1317385483 
832, 12389.3102896801 
833, 12338.3058956415 
834, 12307.9830374195 
835, 12296.8403814041 
836, 12294.3163519526 
837, 12279.6912852007 
838, 12224.9183077993 
839, 12137.9420097577 
840, 12029.8843716635 
841, 11909.2703235739 
842, 11777.7650756243 
843, 11645.1378767705 
844, 11514.3178192743 
845, 11385.2152630137 
846, 11259.3168089241 
847, 11101.7473748553 
848, 10910.9489602161 
849, 10699.7052625692 
850, 10483.9802695337 
851, 10236.7830516528 
852, 9982.62923598464 
853, 9766.64324793636 
854, 9603.24133860348 
855, 9469.3504158811 
856, 9400.2044257065 
857, 9446.8269268456 
858, 9527.15282296938 
859, 9537.61063009708 
860, 9456.77772843185 
861, 9337.86286251067 
862, 9202.15330666856 
863, 9031.79497887019 
864, 8827.22825594175 
865, 8615.7884922528 
866, 8413.01360599821 
867, 8240.08011563376 
868, 8122.81772797485 
869, 8089.52204318158 
870, 8095.11651999233 
871, 8074.35723346583 
872, 7994.79771259498 
873, 7887.67305293745 
874, 7772.16052950555 
875, 7657.10205402454 
876, 7544.89706088748 
877, 7433.16673332809 
878, 7324.699943105 
879, 7218.94178259621 
880, 7113.72369524931 
881, 7005.20761090343 
882, 6899.20586090781 
883, 6799.21265950967 
884, 6705.60935933432 
885, 6613.3293260597 
886, 6514.17483575412 
887, 6410.52180241751 
888, 6308.65128908859 
889, 6210.15653273899 
890, 6111.54408691175 
891, 6002.35712756805 
892, 5870.5343415817 
893, 5711.72894597554 
894, 5529.82251394562 
895, 5328.58649378627 
896, 5113.98981104962 
897, 4899.32849112611 
898, 4699.38685293782 
899, 4534.59025596599 
900, 4422.96833068451 
901, 4359.62073502662 
902, 4333.41188402791 
903, 4325.10874724423 
904, 4312.92088114182 
905, 4288.80135308821 
906, 4241.14223039274 
907, 4160.8442749187 
908, 4047.12656993409 
909, 3925.70141401933 
910, 3823.16189928347 
911, 3748.60392520794 
912, 3695.61174651586 
913, 3654.41650457929 
914, 3615.34522440571 
915, 3575.41428698052 
916, 3538.39936961257 
917, 3515.00061191081 
918, 3500.04529344552 
919, 3486.71735054172 
920, 3469.6072248771 
921, 3452.76635977907 
922, 3425.58810630719 
923, 3380.52743044814 
924, 3314.08795959817 
925, 3225.11561661927 
926, 3117.49577290286 
927, 2989.92007675644 
928, 2837.21145602307 
929, 2654.85575332207 
930, 2449.48660622608 
931, 2233.56114270459 
932, 2023.82191362033 
933, 1838.70736444609 
934, 1693.35835490035 
935, 1595.68960341382 
936, 1545.77298324254 
937, 1535.81549559322 
938, 1549.26463289734 
939, 1571.80522412774 
940, 1592.81312832296 
941, 1607.8311000243 
942, 1612.07930531779 
943, 1598.483528198 
944, 1564.14862149136 
945, 1519.57109360595 
946, 1481.61624422266 
947, 1458.18310075027 
948, 1449.22152821855 
949, 1447.26260827372 
950, 1444.81520788533 
951, 1440.45674995637 
952, 1434.51306764917 
953, 1424.94051407218 
954, 1417.88794047602 
955, 1411.24623130164 
956, 1403.8958508605 
957, 1401.11735744681 
958, 1397.43502606363 
959, 1394.57927056073 
960, 1394.37773410258 
961, 1396.01093519491 
962, 1396.36474253681 
963, 1399.14672374663 
964, 1404.92506795317 
965, 1409.32705432713 
966, 1413.13051798449 
967, 1412.70180331282 
968, 1406.75279143215 
969, 1397.02794889525 
970, 1386.70909747214 
971, 1372.15649378231 
972, 1351.920298602 
973, 1326.68355320703 
974, 1296.40301203698 
975, 1264.93644304803 
976, 1234.39063564271 
977, 1206.48883467275 
978, 1185.71111223455 
979, 1167.75852090107 
980, 1151.38561605338 
981, 1135.97582458684 
982, 1119.73780274257 
983, 1102.4182007102 
984, 1085.37201064282 
985, 1068.05623736302 
986, 1046.73438460962 
987, 1025.0670986167 
988, 1002.75590674466 
989, 979.568274388431 
990, 956.180316795773 
991, 933.903734793312 
992, 910.250979882174 
993, 886.058605119985 
994, 864.236369532369 
995, 844.693875509551 
996, 822.881340483474 
997, 798.692877776461 
998, 774.512193813052 
999, 752.599209972005 
1000, 731.32836838899 
1001, 4700.78278543172 
1002, 4675.68698888929 
1003, 4652.33128499996 
1004, 4631.05511845642 
1005, 4612.82483059956 
1006, 4598.77673195589 
1007, 4587.47932720848 
1008, 4591.40832411894 
1009, 4594.47387126044 
1010, 4604.04354323318 
1011, 4613.55632385723 
1012, 4628.89294704431 
1013, 4634.69838357714 
1014, 4640.56057464372 
1015, 4655.02481157705 
1016, 4663.06830866159 
1017, 4669.91323997416 
1018, 4686.57737144149 
1019, 4704.92906592155 
1020, 4723.76075202447 
1021, 4750.79811317867 
1022, 4776.4670372007 
1023, 4804.65271556234 
1024, 4826.05231334238 
1025, 4849.26566141695 
1026, 4875.32210006183 
1027, 4898.35543399672 
1028, 4922.88060093874 
1029, 4949.81682559394 
1030, 4969.32381736347 
1031, 4988.98234293791 
1032, 5014.32953487469 
1033, 5034.86155596245 
1034, 5056.32412553695 
1035, 5079.79510189857 
1036, 5102.99264560926 
1037, 5125.81122120036 
1038, 5153.88006488106 
1039, 5178.61676248167 
1040, 5196.65275549774 
1041, 5212.19123193961 
1042, 5230.73684990511 
1043, 5251.71410081042 
1044, 5276.08218123742 
1045, 5297.81438183183 
1046, 5313.59081747383 
1047, 5333.74294873175 
1048, 5353.63785185796 
1049, 5374.31288498913 
1050, 5400.16669335287 
1051, 5431.34470817399 
1052, 5458.90258838682 
1053, 5491.99762850681 
1054, 5524.68886316688 
1055, 5549.46701774835 
1056, 5577.77219347898 
1057, 5606.36361914947 
1058, 5637.07640831172 
1059, 5681.70282410999 
1060, 5727.89159950701 
1061, 5778.0254535668 
1062, 5832.19361320797 
1063, 5892.98447199995 
1064, 5953.09999707294 
1065, 6014.74354020708 
1066, 6079.16287686297 
1067, 6143.86680865408 
1068, 6217.72742237005 
1069, 6297.20412388668 
1070, 6390.98160395483 
1071, 6494.2533837812 
1072, 6579.79991655351 
1073, 6667.9358438596 
1074, 6757.89317486751 
1075, 6842.67870878745 
1076, 6920.24264979765 
1077, 7006.53507234562 
1078, 7087.06556739623 
1079, 7150.91799064954 
1080, 7205.14286104861 
1081, 7253.52179228024 
1082, 7296.95916144812 
1083, 7336.21725919519 
1084, 7376.07410013025 
1085, 7414.9590570999 
1086, 7448.05139140235 
1087, 7478.59691633342 
1088, 7503.27957779671 
1089, 7525.65033346753 
1090, 7537.04780717029 
1091, 7543.29659370522 
1092, 7538.9940392518 
1093, 7518.54148117617 
1094, 7494.74606415658 
1095, 7465.72709353615 
1096, 7428.18775613401 
1097, 7398.145036809 
1098, 7369.84792280354 
1099, 7337.87301450388 
1100, 7306.95514244711 
1101, 7272.18702964813 
1102, 7234.43235888344 
1103, 7193.30769265882 
1104, 7155.1064004012 
1105, 7103.02968467784 
1106, 7050.77587014616 
1107, 6976.88482477698 
1108, 6866.51887178503 
1109, 6737.92397354506 
1110, 6560.72268137135 
1111, 6345.50017961893 
1112, 6100.42038849963 
1113, 5807.44063686311 
1114, 5513.9858251264 
1115, 5173.61206024783 
1116, 4867.59657431904 
1117, 4536.43506465369 
1118, 4257.90556773884 
1119, 4004.16742746179 
1120, 3772.13523272652 
1121, 3576.47937920796 
1122, 3422.64984074432 
1123, 3311.93264981659 
1124, 3233.63016771918 
1125, 3193.33974171708 
1126, 3209.28075939071 
1127, 3223.98492573027 
1128, 3269.40117330906 
1129, 3319.76629768734 
1130, 3396.5600043777 
1131, 3464.93823338853 
1132, 3531.78140251034 
1133, 3616.25517869517 
1134, 3705.63466179916 
1135, 3799.03362887942 
1136, 3937.09154558973 
1137, 4083.03812380003 
1138, 4220.00751196464 
1139, 4344.60103718988 
1140, 4422.59079095957 
1141, 4473.61277409954 
1142, 4487.82510735446 
1143, 4446.87724002259 
1144, 4420.93009267545 
1145, 4332.61053271962 
1146, 4313.98122007049 
1147, 4299.71902217299 
1148, 4335.90433739693 
1149, 4419.40857587924 
1150, 4528.9512999098 
1151, 4682.4172202764 
1152, 4853.1382229262 
1153, 5034.17591135694 
1154, 5251.47304181599 
1155, 5448.33064090258 
1156, 5656.72626672917 
1157, 5846.19314364227 
1158, 6032.49608952342 
1159, 6203.41504996117 
1160, 6367.28573885549 
1161, 6512.80188991036 
1162, 6648.35411787303 
1163, 6763.39072609987 
1164, 6860.46306777111 
1165, 6941.37756125727 
1166, 6999.11427778217 
1167, 7046.24707337223 
1168, 7075.69775566263 
1169, 7085.64426761447 
1170, 7085.56680108877 
1171, 7069.66362633259 
1172, 7044.91915628984 
1173, 7004.9397946342 
1174, 6960.28175558115 
1175, 6902.63791543613 
1176, 6844.47143508322 
1177, 6780.91631092065 
