Wavelength,0212202100129.asd
350, 2822.3847390344 
351, 2967.98304861903 
352, 3105.78546187314 
353, 3220.6039033024 
354, 3330.83431567702 
355, 3446.78788779605 
356, 3571.55396826553 
357, 3694.09267692642 
358, 3820.42820261535 
359, 3954.66566861494 
360, 4102.86458441593 
361, 4285.16918039843 
362, 4495.09838627678 
363, 4721.68122867124 
364, 4952.40320796858 
365, 5187.54149841196 
366, 5412.92237861403 
367, 5610.70820193603 
368, 5762.08105309457 
369, 5850.65416170012 
370, 5881.10636680775 
371, 5871.56031875854 
372, 5849.05423483128 
373, 5838.65198311165 
374, 5846.16403856396 
375, 5862.1964988599 
376, 5877.0560363801 
377, 5885.81760697352 
378, 5875.14123930751 
379, 5820.3702261362 
380, 5752.84668588034 
381, 5675.38327480942 
382, 5584.60454159534 
383, 5478.5555691526 
384, 5370.59848494503 
385, 5293.90761770482 
386, 5290.73786762914 
387, 5399.24120325482 
388, 5557.96684694216 
389, 5697.51814777866 
390, 5757.78804589137 
391, 5822.94229003629 
392, 5887.58107808889 
393, 5939.5223650522 
394, 5981.6073640255 
395, 6103.68438126992 
396, 6347.51866437855 
397, 6729.31211945521 
398, 7262.96749928684 
399, 7868.54665501407 
400, 8490.24260902089 
401, 9099.37436046055 
402, 9677.08016473975 
403, 10151.7136418118 
404, 10493.8561097307 
405, 10761.008112182 
406, 10972.2373480962 
407, 11159.614782565 
408, 11363.7659380634 
409, 11646.3977722644 
410, 11983.4107049189 
411, 12355.2482780687 
412, 12746.7095524032 
413, 13131.3672237004 
414, 13512.2916778934 
415, 13882.1820233365 
416, 14206.5848095747 
417, 14511.5448221183 
418, 14823.845186645 
419, 15152.8646600522 
420, 15438.2346900475 
421, 15724.3546724465 
422, 16037.0334799279 
423, 16378.361490148 
424, 16689.8683826573 
425, 16934.5135369575 
426, 17080.2080867008 
427, 17092.9608109674 
428, 17028.6210864201 
429, 17040.2106183664 
430, 17251.7699446672 
431, 17559.6736721626 
432, 17966.7245448497 
433, 18565.8976722636 
434, 19475.5892875609 
435, 20441.8211391382 
436, 21180.4971278866 
437, 21634.0990070954 
438, 22118.0374111678 
439, 22610.3528555533 
440, 23073.7590905165 
441, 23497.6328456675 
442, 24043.9908839155 
443, 24620.1132746005 
444, 25149.7766951884 
445, 25582.1940845611 
446, 25929.1341417013 
447, 26240.1793749117 
448, 26570.2719264856 
449, 26981.6342045465 
450, 27330.3778370635 
451, 27518.3535693485 
452, 27508.5840702682 
453, 27439.4112199896 
454, 27285.5324623902 
455, 27089.1178338811 
456, 26953.4234707579 
457, 26922.123882673 
458, 26930.6384675156 
459, 26911.8205449907 
460, 26839.5171684596 
461, 26734.8173541948 
462, 26621.9518367638 
463, 26511.0644376735 
464, 26336.3749491979 
465, 26065.5783613448 
466, 25730.7453690168 
467, 25425.0004533953 
468, 25164.8007512136 
469, 24970.6879748246 
470, 24852.8177163001 
471, 24810.3064284868 
472, 24782.8118656494 
473, 24775.5219513912 
474, 24811.430029082 
475, 24803.0585456914 
476, 24775.9241289882 
477, 24759.854068745 
478, 24776.0686537031 
479, 24857.5096460146 
480, 24970.3385843034 
481, 25052.5876919148 
482, 25032.8862261662 
483, 24847.1513292687 
484, 24456.8148770268 
485, 23873.8355162847 
486, 23307.897368299 
487, 22905.3172427596 
488, 22785.0270698614 
489, 23052.6602923705 
490, 23478.168084367 
491, 23828.659212452 
492, 23953.6027288595 
493, 23997.8940052365 
494, 24065.9073576647 
495, 24203.0589862352 
496, 24389.2593345984 
497, 24448.672328779 
498, 24381.9998662294 
499, 24228.9737361057 
500, 24025.4639488708 
501, 23867.5977425734 
502, 23801.8521783877 
503, 23852.8043861664 
504, 24072.3014144366 
505, 24380.732638824 
506, 24696.1103242313 
507, 24947.7442333233 
508, 25139.2084011207 
509, 25289.904266914 
510, 25431.6008752494 
511, 25622.5271194066 
512, 25757.0426487901 
513, 25784.3609062013 
514, 25690.1483502165 
515, 25478.0377613561 
516, 25193.8977310127 
517, 24916.50491538 
518, 24754.533538688 
519, 24964.4486736266 
520, 25568.2148135495 
521, 26419.6988751625 
522, 27129.3642772657 
523, 27658.5947597909 
524, 28030.6310965649 
525, 28309.4839717336 
526, 28429.8764572768 
527, 28478.5365464997 
528, 28628.2474496934 
529, 29199.0054084803 
530, 29945.6291843405 
531, 30577.2092552221 
532, 30853.8398101019 
533, 30947.812882025 
534, 31087.307193484 
535, 31396.9107863887 
536, 31871.2341497198 
537, 32213.3049810148 
538, 32371.586800606 
539, 32391.316178485 
540, 32378.9016443981 
541, 32407.2233989936 
542, 32573.4272638628 
543, 32951.7984876995 
544, 33384.6481057567 
545, 33766.4413755146 
546, 34036.5733362507 
547, 34187.8345266744 
548, 34288.5996485375 
549, 34407.2580444758 
550, 34584.8759052815 
551, 34769.1586309796 
552, 34911.3253516541 
553, 35015.5480341398 
554, 35126.6572679336 
555, 35211.0247895559 
556, 35179.8431043255 
557, 34985.0734223659 
558, 34663.8768639984 
559, 34389.145084306 
560, 34263.782132937 
561, 34324.4761143673 
562, 34476.9739089827 
563, 34568.3891096301 
564, 34520.0653537659 
565, 34348.1547486969 
566, 34107.5064514612 
567, 33862.8234451612 
568, 33652.206661604 
569, 33438.0119814664 
570, 33163.1709670686 
571, 32903.7526671873 
572, 32806.5745747524 
573, 32834.425167513 
574, 32824.8454366789 
575, 32675.4658586415 
576, 32404.3682699692 
577, 32152.7388413192 
578, 32019.4139498671 
579, 32060.0955512144 
580, 32231.2106384947 
581, 32528.7241735988 
582, 32889.6089206929 
583, 33196.9129878259 
584, 33390.9042784582 
585, 33388.2496489215 
586, 33178.2683955673 
587, 32913.014574804 
588, 32579.5777447686 
589, 32127.8874804275 
590, 31563.8548916539 
591, 31361.191509675 
592, 31508.2712374963 
593, 31783.4023337052 
594, 31769.9636886001 
595, 31611.7835982085 
596, 31387.9549917941 
597, 31152.1954351349 
598, 30895.8107615136 
599, 30581.8308608325 
600, 30236.8391898597 
601, 29931.8963886004 
602, 29696.3045386229 
603, 29569.8774517539 
604, 29550.0763601224 
605, 29573.1840598797 
606, 29507.093302363 
607, 29342.2213252358 
608, 29127.3914811561 
609, 28920.0283677382 
610, 28720.9224354407 
611, 28538.3147286814 
612, 28387.0974100951 
613, 28226.7507497131 
614, 28039.6323100405 
615, 27836.1470309328 
616, 27674.8334591532 
617, 27572.9446663776 
618, 27569.9078015334 
619, 27686.7957857022 
620, 27807.648478161 
621, 27818.2542658497 
622, 27679.840487779 
623, 27445.6764371963 
624, 27179.6772337921 
625, 26925.9015427757 
626, 26706.5958117747 
627, 26507.888174221 
628, 26310.6074649535 
629, 26123.0032006076 
630, 25981.0034406684 
631, 25989.7742445139 
632, 26083.5623189442 
633, 26199.5968572404 
634, 26322.4513971977 
635, 26415.5443280695 
636, 26479.4968492182 
637, 26523.9265331468 
638, 26537.3740649282 
639, 26493.3652056808 
640, 26373.3761979046 
641, 26176.2544586355 
642, 26017.0815337924 
643, 25919.4530054152 
644, 25857.2478915677 
645, 25745.2143605792 
646, 25570.5588622103 
647, 25352.3526671391 
648, 25131.5015511961 
649, 24954.0560427598 
650, 24818.260117612 
651, 24745.7107924889 
652, 24774.8926562909 
653, 24717.037724947 
654, 24441.655567558 
655, 23925.7839441738 
656, 23322.200730764 
657, 22884.5158338914 
658, 22885.4891185983 
659, 23465.7976522289 
660, 24060.1756445894 
661, 24401.2933642515 
662, 24468.9586600693 
663, 24499.6643519455 
664, 24472.9488417873 
665, 24429.7784933134 
666, 24406.8211999215 
667, 24410.1049660499 
668, 24398.0875475143 
669, 24369.9695788813 
670, 24343.9505464326 
671, 24290.5039026471 
672, 24226.7510171307 
673, 24182.0977070691 
674, 24194.8585512952 
675, 24221.9505259776 
676, 24239.9692536136 
677, 24240.8199094312 
678, 24247.7073175142 
679, 24247.4053587509 
680, 24237.8052596927 
681, 24222.2272096562 
682, 24197.4565976354 
683, 24134.8059916558 
684, 23928.1044751033 
685, 23370.8319976124 
686, 22392.5482471054 
687, 21079.185607314 
688, 19747.3327027643 
689, 19190.9658588667 
690, 19586.685817787 
691, 20568.2463535519 
692, 21448.4392643306 
693, 22215.5192339315 
694, 22766.0407344077 
695, 23093.5091736882 
696, 23322.8755048075 
697, 23522.1421251963 
698, 23655.0013794989 
699, 23673.4612256096 
700, 23605.8611744605 
701, 23539.3808584467 
702, 23533.4637536331 
703, 23621.0261840872 
704, 23807.7223618856 
705, 24029.5858540711 
706, 24220.6159314437 
707, 24326.3709516387 
708, 24410.3649979185 
709, 24485.6234643385 
710, 24551.6665790318 
711, 24612.2142778856 
712, 24651.0647314763 
713, 24655.806953907 
714, 24608.7500114393 
715, 24459.6740314992 
716, 24101.4898035274 
717, 23487.0718122194 
718, 22654.4847932127 
719, 21962.9670905418 
720, 21705.4373695838 
721, 21991.7825118618 
722, 22595.631536023 
723, 23010.0268679365 
724, 23061.017120231 
725, 22842.9484282491 
726, 22781.998006253 
727, 22841.1014065658 
728, 22938.902215511 
729, 23001.1886652402 
730, 23160.1288266353 
731, 23446.6049995408 
732, 23841.3988299096 
733, 24280.2608191729 
734, 24660.0642168413 
735, 24902.7407932744 
736, 24974.4369180428 
737, 24951.4245634245 
738, 24913.6367341137 
739, 24880.1985968512 
740, 24822.0700918179 
741, 24805.1842229396 
742, 24836.2441215624 
743, 24905.8995054268 
744, 24999.0622890708 
745, 25060.2364273609 
746, 25081.1204654977 
747, 25068.6725802106 
748, 25020.340827665 
749, 24925.2124071372 
750, 24800.1451637242 
751, 24682.2529623637 
752, 24614.7879797664 
753, 24584.046688277 
754, 24563.0364920317 
755, 24516.4133513926 
756, 24377.5728139266 
757, 23849.856024666 
758, 22457.9540625487 
759, 19394.571977032 
760, 14905.5978625427 
761, 10507.9172839254 
762, 8032.67856390088 
763, 8002.24507803821 
764, 9281.67836925601 
765, 11286.9107569561 
766, 13938.923498043 
767, 16829.7433377179 
768, 19337.3872868897 
769, 21076.3119918508 
770, 22037.032158205 
771, 22498.6820471182 
772, 22665.0870256297 
773, 22690.2796705906 
774, 22656.9322885782 
775, 22579.8590474385 
776, 22484.6068017366 
777, 22389.5299488047 
778, 22273.1799592673 
779, 22140.4655594976 
780, 22007.7008301765 
781, 21895.2477794833 
782, 21775.8501033588 
783, 21639.3283789807 
784, 21487.4425462644 
785, 21335.4113004486 
786, 21182.6330586801 
787, 21009.1155154056 
788, 20797.6036499542 
789, 20550.4777841888 
790, 20293.8749431902 
791, 20038.4081827866 
792, 19788.5862746643 
793, 19552.7645422114 
794, 19361.3377882054 
795, 19229.9385630503 
796, 19155.4078468573 
797, 19101.9704671689 
798, 19019.5439377376 
799, 18882.4021296579 
800, 18699.3299476369 
801, 18499.0139084993 
802, 18313.1924460494 
803, 18156.708261735 
804, 18008.6022314453 
805, 17882.9125196399 
806, 17767.3893125973 
807, 17638.2931638295 
808, 17468.7580212645 
809, 17257.8930962925 
810, 17019.554127319 
811, 16766.2501052363 
812, 16457.9289538617 
813, 16052.2270344785 
814, 15545.155194351 
815, 14977.7836674094 
816, 14455.717114875 
817, 14054.03094032 
818, 13817.7555402969 
819, 13757.5089211926 
820, 13756.8350587915 
821, 13725.3209104993 
822, 13624.3001639868 
823, 13500.2918441727 
824, 13420.2962112504 
825, 13440.9171365796 
826, 13548.1830795174 
827, 13532.6928222632 
828, 13389.0571660504 
829, 13188.2911041699 
830, 13032.1622084386 
831, 12936.0705384807 
832, 12869.4045021934 
833, 12816.7004158843 
834, 12779.6510618664 
835, 12765.6991427114 
836, 12762.7267289974 
837, 12746.7155766739 
838, 12686.365851898 
839, 12594.6299729299 
840, 12481.9686638726 
841, 12356.6429250852 
842, 12222.5169321151 
843, 12082.9884931542 
844, 11945.039022355 
845, 11811.8074500537 
846, 11679.03490306 
847, 11516.3875023253 
848, 11319.9809331406 
849, 11099.9504100895 
850, 10876.676677665 
851, 10620.4058877484 
852, 10356.6229166723 
853, 10132.7640978026 
854, 9962.86339160921 
855, 9823.20422894764 
856, 9750.71587826932 
857, 9799.05042961564 
858, 9886.0077035688 
859, 9896.98671511086 
860, 9810.3735287838 
861, 9688.26775165823 
862, 9546.12709803287 
863, 9370.37569505171 
864, 9161.21339869559 
865, 8940.3076244913 
866, 8731.86883369683 
867, 8554.33225384076 
868, 8433.09644561155 
869, 8401.65406654723 
870, 8407.5396589973 
871, 8385.15875468143 
872, 8303.13677178755 
873, 8193.38218278446 
874, 8074.74133732812 
875, 7955.44475681924 
876, 7838.41621556237 
877, 7724.49612373226 
878, 7612.6883929748 
879, 7503.37393898511 
880, 7395.76570818268 
881, 7284.66220927986 
882, 7174.67471995174 
883, 7070.47635876558 
884, 6973.99113379857 
885, 6879.83586621493 
886, 6778.5105495011 
887, 6671.1250967756 
888, 6564.08193682117 
889, 6463.63409194941 
890, 6364.1208472831 
891, 6252.32731216479 
892, 6114.76084252611 
893, 5952.00979093174 
894, 5764.20711908914 
895, 5555.74442372247 
896, 5335.19313497988 
897, 5114.96424957781 
898, 4908.94102340385 
899, 4737.37671509494 
900, 4619.40975280032 
901, 4555.19864342474 
902, 4527.69702073783 
903, 4517.33324034789 
904, 4505.19327892638 
905, 4479.5130720424 
906, 4430.49281640011 
907, 4347.76243541616 
908, 4228.10487147121 
909, 4102.02156745271 
910, 3995.66625451913 
911, 3919.1152784548 
912, 3866.88122264216 
913, 3822.2554954669 
914, 3779.70160611847 
915, 3737.88582619101 
916, 3699.65382444863 
917, 3675.82358788619 
918, 3658.51950745745 
919, 3642.52348538307 
920, 3625.74989702842 
921, 3605.09326676366 
922, 3576.56930518081 
923, 3531.85773638779 
924, 3461.96515891782 
925, 3369.64536149817 
926, 3258.89849512313 
927, 3126.1622425067 
928, 2964.64386388746 
929, 2779.50186276164 
930, 2569.73371640972 
931, 2345.49816300058 
932, 2126.25077790256 
933, 1935.22746496207 
934, 1783.38431520815 
935, 1680.55809298384 
936, 1630.37124024613 
937, 1617.73396743622 
938, 1631.69430697442 
939, 1655.78191081166 
940, 1675.23750990715 
941, 1691.6522436423 
942, 1697.74699851405 
943, 1683.64851931994 
944, 1645.4659071708 
945, 1598.49449308614 
946, 1558.4188109605 
947, 1535.12343872752 
948, 1528.75200279296 
949, 1523.16002539738 
950, 1519.23355316545 
951, 1515.04792282859 
952, 1508.98970831698 
953, 1501.28332189998 
954, 1491.76991221348 
955, 1483.07574054027 
956, 1476.67169134041 
957, 1470.3518535562 
958, 1469.44657434875 
959, 1468.32120803791 
960, 1464.75417112606 
961, 1465.25499409556 
962, 1467.00022512513 
963, 1471.35553506651 
964, 1477.41426728739 
965, 1481.10829770868 
966, 1481.44162242863 
967, 1479.44270949936 
968, 1474.80082639333 
969, 1466.10187034028 
970, 1455.45661837975 
971, 1439.6535083074 
972, 1417.1698053277 
973, 1388.97837996735 
974, 1359.2019835521 
975, 1328.08088401099 
976, 1296.86261122797 
977, 1267.98821272769 
978, 1246.12427854502 
979, 1226.03239514591 
980, 1208.09728831217 
981, 1192.82916056379 
982, 1176.22610466063 
983, 1159.35086780136 
984, 1140.62814053496 
985, 1119.84287646908 
986, 1099.59328694326 
987, 1078.64568348973 
988, 1055.49283955953 
989, 1031.12079432435 
990, 1008.22499154286 
991, 981.057344220962 
992, 956.552482956051 
993, 934.695256322839 
994, 910.851562027814 
995, 888.543952127146 
996, 864.049794563883 
997, 839.292768366408 
998, 817.04505783116 
999, 794.131658334675 
1000, 770.862728655466 
1001, 4800.59440164078 
1002, 4777.85542652874 
1003, 4754.14085930015 
1004, 4733.54107038933 
1005, 4716.17072347558 
1006, 4701.17809832824 
1007, 4691.47971378273 
1008, 4687.92890284605 
1009, 4689.73620265051 
1010, 4700.89631486584 
1011, 4711.73753852847 
1012, 4728.34323135336 
1013, 4741.91162798839 
1014, 4755.4979467073 
1015, 4765.72320777989 
1016, 4771.87577885446 
1017, 4780.97028671354 
1018, 4793.80868969532 
1019, 4811.11133836461 
1020, 4831.28910432167 
1021, 4854.80271935206 
1022, 4880.48628473023 
1023, 4909.25081274373 
1024, 4936.39834328658 
1025, 4964.25148520227 
1026, 4995.91908155843 
1027, 5024.71134138078 
1028, 5049.25724256524 
1029, 5076.97521883131 
1030, 5101.52135044327 
1031, 5121.48145482408 
1032, 5142.81331412458 
1033, 5165.44418627033 
1034, 5187.84910862185 
1035, 5209.79265683115 
1036, 5232.218503275 
1037, 5255.3943975732 
1038, 5278.19619690477 
1039, 5299.9449576101 
1040, 5321.76132511041 
1041, 5343.1714252178 
1042, 5362.8820891904 
1043, 5380.96178692021 
1044, 5397.53087724572 
1045, 5418.74939558654 
1046, 5444.35516443798 
1047, 5466.61017175596 
1048, 5488.29861536126 
1049, 5512.08700633056 
1050, 5538.07551001914 
1051, 5560.66768869175 
1052, 5587.80348730164 
1053, 5621.99011228164 
1054, 5650.73469553249 
1055, 5677.57975673496 
1056, 5706.12503284026 
1057, 5735.2348273962 
1058, 5773.36766559016 
1059, 5814.45425344457 
1060, 5858.53178401091 
1061, 5910.07645161482 
1062, 5961.39003532849 
1063, 6010.60564011237 
1064, 6068.01961087009 
1065, 6135.13065401516 
1066, 6205.02605282773 
1067, 6282.39834856969 
1068, 6367.60876593282 
1069, 6457.63125136782 
1070, 6550.44621808106 
1071, 6647.00716464861 
1072, 6741.49437395343 
1073, 6834.1524519282 
1074, 6926.66403259688 
1075, 7014.3669540904 
1076, 7101.96156387368 
1077, 7183.28398891093 
1078, 7250.06517680591 
1079, 7315.820502663 
1080, 7374.32473968347 
1081, 7420.08333636941 
1082, 7472.21038653947 
1083, 7518.91280588142 
1084, 7555.24662145698 
1085, 7593.14718658071 
1086, 7625.68518556691 
1087, 7653.67229456913 
1088, 7676.95923369187 
1089, 7700.62087252511 
1090, 7711.53868794266 
1091, 7715.8640439411 
1092, 7709.62268845572 
1093, 7690.05811108764 
1094, 7669.58140192347 
1095, 7646.98084383748 
1096, 7611.25678465481 
1097, 7575.65242782904 
1098, 7543.18332737994 
1099, 7509.4321983663 
1100, 7472.01638462551 
1101, 7439.64826735174 
1102, 7416.52953359023 
1103, 7378.38015575922 
1104, 7339.2808693595 
1105, 7294.02769647674 
1106, 7231.31742088368 
1107, 7148.39509074302 
1108, 7045.9052093677 
1109, 6913.71697501226 
1110, 6738.12073767619 
1111, 6525.54728021746 
1112, 6274.86570189661 
1113, 5965.34283418955 
1114, 5664.43930173191 
1115, 5314.40593633397 
1116, 5003.65123153504 
1117, 4674.53212714987 
1118, 4393.09767007213 
1119, 4136.91915326092 
1120, 3901.55643992614 
1121, 3699.72603236704 
1122, 3539.46046416565 
1123, 3425.62316839765 
1124, 3346.16481318926 
1125, 3308.83942145423 
1126, 3335.22864454222 
1127, 3353.79345396863 
1128, 3404.88628202307 
1129, 3457.11066058814 
1130, 3528.54137508335 
1131, 3595.36349220885 
1132, 3662.8094122253 
1133, 3745.60379786288 
1134, 3829.95925311601 
1135, 3924.48475116112 
1136, 4064.21612449541 
1137, 4211.66178945651 
1138, 4360.61297042175 
1139, 4495.0744188116 
1140, 4574.12183673164 
1141, 4620.89185328254 
1142, 4633.91113691775 
1143, 4582.23807589965 
1144, 4554.25001376565 
1145, 4470.40157713503 
1146, 4453.8881769576 
1147, 4444.27854528608 
1148, 4484.04280108746 
1149, 4569.12286875041 
1150, 4684.46773082906 
1151, 4842.49202867448 
1152, 5019.63010731344 
1153, 5202.3258284725 
1154, 5418.84261076132 
1155, 5617.14392801164 
1156, 5821.41174587796 
1157, 6014.54393542135 
1158, 6214.77674348351 
1159, 6390.56245274391 
1160, 6559.43600934029 
1161, 6706.12257435268 
1162, 6836.15351969067 
1163, 6948.30138782055 
1164, 7041.00197763609 
1165, 7117.21788258662 
1166, 7184.03500579278 
1167, 7226.10268594337 
1168, 7252.48219783225 
1169, 7261.11832554847 
1170, 7257.94705765306 
1171, 7232.2364283023 
1172, 7203.81098888633 
1173, 7163.50651750713 
1174, 7118.77726547468 
1175, 7065.10313596019 
1176, 7004.91051645699 
1177, 6932.50325340817 
1178, 6864.20923115646 
