Wavelength,0212202100061.asd
350, 293.980540570714 
351, 311.468040656917 
352, 328.890981965713 
353, 341.525620644404 
354, 353.898608791011 
355, 368.363473190726 
356, 385.399418578833 
357, 401.681238748685 
358, 420.342136179966 
359, 440.941775179063 
360, 462.112973169749 
361, 487.575716803008 
362, 518.1243871873 
363, 551.497985584243 
364, 583.20707354328 
365, 617.942249593254 
366, 653.256453967255 
367, 685.863780128546 
368, 713.552661484291 
369, 733.855709099293 
370, 749.103891481334 
371, 762.323136491313 
372, 770.78320180117 
373, 784.361535664589 
374, 803.714238521168 
375, 823.170193031739 
376, 842.62684217198 
377, 861.978234667948 
378, 879.524756966254 
379, 891.459383132565 
380, 899.803631267546 
381, 908.453411842378 
382, 919.657503031936 
383, 929.72730606754 
384, 937.889674387386 
385, 953.516763604713 
386, 989.289702361761 
387, 1046.19183462725 
388, 1110.78132343652 
389, 1170.06396140056 
390, 1214.69601121536 
391, 1266.30438744154 
392, 1319.47188297888 
393, 1368.66368070953 
394, 1417.53801318114 
395, 1492.34184295099 
396, 1601.291708545 
397, 1744.44336052251 
398, 1926.08274552746 
399, 2127.47788948984 
400, 2333.43861395658 
401, 2533.87664182102 
402, 2729.81115704835 
403, 2896.82321166605 
404, 3024.23929963911 
405, 3132.86213827695 
406, 3224.71267180295 
407, 3307.17869754532 
408, 3391.60870273177 
409, 3498.85349093162 
410, 3623.02109943418 
411, 3757.37411884247 
412, 3895.22239899741 
413, 4032.02790425252 
414, 4169.14273845777 
415, 4303.33177515528 
416, 4421.31245195168 
417, 4536.78434661726 
418, 4657.62745116736 
419, 4784.68913559872 
420, 4898.70486938603 
421, 5017.54133949442 
422, 5148.44880552608 
423, 5288.17350736709 
424, 5421.73161093259 
425, 5538.03691729224 
426, 5625.53741110617 
427, 5669.35123767959 
428, 5690.01622669388 
429, 5741.77657394056 
430, 5868.51259911974 
431, 6033.71198690571 
432, 6237.6082845571 
433, 6513.37396063429 
434, 6903.72935342266 
435, 7316.45356149837 
436, 7654.92987721377 
437, 7900.26582008116 
438, 8159.8016959275 
439, 8430.28451665687 
440, 8693.40443028824 
441, 8940.00744863683 
442, 9234.53499404879 
443, 9537.91392910327 
444, 9819.80024023848 
445, 10061.630547286 
446, 10268.0522787061 
447, 10456.2218348794 
448, 10645.8625632938 
449, 10861.2650983638 
450, 11043.5845195641 
451, 11154.5700490928 
452, 11180.8359047228 
453, 11176.2576374184 
454, 11133.597825393 
455, 11070.3856099305 
456, 11026.7600093992 
457, 11023.7831363977 
458, 11037.6905963882 
459, 11041.2874137814 
460, 11019.2534558614 
461, 10983.9385192809 
462, 10946.1571314351 
463, 10909.9471932406 
464, 10848.7398215373 
465, 10749.0243878487 
466, 10622.6768537825 
467, 10505.9089423518 
468, 10410.4239135156 
469, 10343.2170206871 
470, 10306.8184544881 
471, 10302.30793752 
472, 10304.1371513341 
473, 10315.4026600917 
474, 10346.8316993914 
475, 10360.2704181125 
476, 10366.670662387 
477, 10378.3516147279 
478, 10403.3217839727 
479, 10455.8727678799 
480, 10520.6479597279 
481, 10571.791118101 
482, 10584.6830573987 
483, 10529.151896721 
484, 10389.8102694572 
485, 10174.2918542474 
486, 9965.71045027305 
487, 9829.74008627235 
488, 9818.17363537763 
489, 9971.7168320949 
490, 10196.0927013445 
491, 10391.7919031536 
492, 10493.3606297475 
493, 10562.1626485804 
494, 10643.9394277279 
495, 10758.8497249622 
496, 10898.3847412731 
497, 10984.2050795341 
498, 11014.9722297282 
499, 11007.4793476668 
500, 10978.4891422608 
501, 10974.3853659014 
502, 11015.3593798534 
503, 11110.8109813356 
504, 11287.1302123742 
505, 11505.5955477456 
506, 11728.289480416 
507, 11924.7148294146 
508, 12093.5395824653 
509, 12244.7971062344 
510, 12394.7191522067 
511, 12570.7178575316 
512, 12722.0045122616 
513, 12823.4141837637 
514, 12866.7051196829 
515, 12851.5483003588 
516, 12798.9327469607 
517, 12748.4132797403 
518, 12757.1172557056 
519, 12961.3326777852 
520, 13371.0398839356 
521, 13910.1205368787 
522, 14386.3574436215 
523, 14771.7991650163 
524, 15077.3718938 
525, 15340.2578961005 
526, 15521.3697322484 
527, 15666.0658444062 
528, 15868.8519254747 
529, 16308.4833848254 
530, 16849.3266851159 
531, 17328.5639441311 
532, 17611.1731537588 
533, 17792.4929749972 
534, 18001.9415556325 
535, 18309.2281512361 
536, 18709.2626779774 
537, 19036.4068856296 
538, 19257.3128021204 
539, 19394.46194295 
540, 19511.5012716878 
541, 19653.6305579822 
542, 19878.4111823082 
543, 20228.9620866377 
544, 20614.9978989897 
545, 20967.0495013028 
546, 21246.3531794945 
547, 21453.8593503341 
548, 21625.7769646233 
549, 21805.1641476603 
550, 22019.371756569 
551, 22234.1146168949 
552, 22417.1086199904 
553, 22570.7889307398 
554, 22724.1870533738 
555, 22853.4085903572 
556, 22903.4438094263 
557, 22844.5873812275 
558, 22698.1859818316 
559, 22574.9678847681 
560, 22544.7959063113 
561, 22636.3089678891 
562, 22789.7114363835 
563, 22900.6863012981 
564, 22918.0091570787 
565, 22858.3492140104 
566, 22753.8330515105 
567, 22649.9581643516 
568, 22574.4654345585 
569, 22499.7924935352 
570, 22385.9403580297 
571, 22282.1710883821 
572, 22285.9045928118 
573, 22376.8553660368 
574, 22444.9843252274 
575, 22418.9746079999 
576, 22306.8628660564 
577, 22207.5148128307 
578, 22187.2459117767 
579, 22283.5522791019 
580, 22473.638050986 
581, 22753.299827238 
582, 23078.2766457627 
583, 23368.4217050288 
584, 23590.3727115649 
585, 23684.1223533561 
586, 23639.568625892 
587, 23563.085411753 
588, 23452.2777342397 
589, 23267.8389282244 
590, 23004.0392920365 
591, 22985.5301190411 
592, 23207.9281927247 
593, 23515.0885877296 
594, 23607.0542319283 
595, 23586.5156250082 
596, 23509.8928299743 
597, 23414.8350417431 
598, 23291.9542571447 
599, 23117.3444701818 
600, 22912.7019781957 
601, 22731.3898142359 
602, 22594.0372208808 
603, 22531.5978446516 
604, 22543.0355519721 
605, 22580.8033528672 
606, 22539.8912159308 
607, 22414.6083676681 
608, 22244.2343781046 
609, 22065.5640479638 
610, 21886.6601690428 
611, 21714.6072924198 
612, 21555.1322642501 
613, 21384.767496238 
614, 21187.6402367077 
615, 20971.2424183081 
616, 20789.4432973767 
617, 20651.5993914392 
618, 20584.9660357557 
619, 20604.9592531237 
620, 20633.3804459283 
621, 20584.7174855715 
622, 20430.3829794115 
623, 20212.2473618173 
624, 19980.0380183682 
625, 19766.5122884655 
626, 19589.1795927173 
627, 19444.1604549677 
628, 19314.5311703233 
629, 19198.5435952371 
630, 19112.2435535853 
631, 19130.4568361181 
632, 19213.0116084052 
633, 19321.9978511872 
634, 19452.0601665327 
635, 19567.34015418 
636, 19669.2098619351 
637, 19766.9684345816 
638, 19845.7373096346 
639, 19892.4163079106 
640, 19893.5359794899 
641, 19843.2830353618 
642, 19829.1354932478 
643, 19870.3091925382 
644, 19948.1649903289 
645, 19998.1857403242 
646, 20012.7024620127 
647, 20001.996603166 
648, 19990.6446876969 
649, 20011.0398976389 
650, 20059.3410361054 
651, 20153.7484691876 
652, 20329.1197057435 
653, 20437.5150605592 
654, 20365.7374618938 
655, 20090.8039181358 
656, 19745.9507661072 
657, 19539.1716794856 
658, 19699.143898864 
659, 20346.5598430849 
660, 21013.2898227076 
661, 21465.6303052908 
662, 21682.963646176 
663, 21868.5217951379 
664, 22002.4022442426 
665, 22120.1459383081 
666, 22253.4585260821 
667, 22405.4237336345 
668, 22538.4458427167 
669, 22654.4478483171 
670, 22772.8380393875 
671, 22859.8612278659 
672, 22933.7868775135 
673, 23022.7006876493 
674, 23159.5513451508 
675, 23307.4013386176 
676, 23444.2920392718 
677, 23561.9493128227 
678, 23682.2474040163 
679, 23794.7882362846 
680, 23896.2918713059 
681, 23987.3342340632 
682, 24071.6901742485 
683, 24112.886327002 
684, 24006.2508971989 
685, 23562.3612464631 
686, 22710.615450891 
687, 21538.2651533453 
688, 20352.1992171999 
689, 19903.0935456089 
690, 20378.3496510426 
691, 21432.1368416543 
692, 22401.2595481299 
693, 23269.9542605684 
694, 23930.3959565227 
695, 24363.8801755138 
696, 24672.8238618263 
697, 24933.7657501119 
698, 25125.3798124524 
699, 25214.6734025245 
700, 25238.9434461997 
701, 25255.9336594098 
702, 25318.0088674809 
703, 25467.1339624885 
704, 25717.4226024293 
705, 26002.002460709 
706, 26253.7392253042 
707, 26421.8298482386 
708, 26567.6919506883 
709, 26707.5549843721 
710, 26844.610400767 
711, 26982.9913150618 
712, 27106.1602275118 
713, 27203.8425469839 
714, 27262.4909409431 
715, 27237.3133389854 
716, 27028.7570618214 
717, 26585.8938935561 
718, 25928.7798213614 
719, 25380.0352244476 
720, 25225.5413583011 
721, 25586.0479889773 
722, 26263.6533396881 
723, 26777.3062126992 
724, 26955.5558972346 
725, 26876.7483402169 
726, 26933.3876095458 
727, 27088.0200877398 
728, 27264.6684484641 
729, 27397.3660015563 
730, 27628.9583876296 
731, 27993.6592428025 
732, 28468.1353987054 
733, 28971.3686461417 
734, 29412.2710244138 
735, 29719.3954046774 
736, 29860.5177829792 
737, 29900.4765733892 
738, 29915.608809795 
739, 29925.7904468686 
740, 29906.9289978736 
741, 29933.7910422987 
742, 30024.8379433007 
743, 30173.7849433277 
744, 30354.4549023629 
745, 30501.0731334841 
746, 30604.1597829591 
747, 30672.3516022389 
748, 30702.7302998603 
749, 30673.8029326499 
750, 30606.3758456313 
751, 30550.4441130231 
752, 30554.0239780368 
753, 30598.4203669709 
754, 30651.7264502382 
755, 30674.7461845687 
756, 30576.1221202613 
757, 29990.1622705649 
758, 28333.9476967868 
759, 24618.0323839674 
760, 19130.6517987536 
761, 13754.7314036382 
762, 10771.3612564542 
763, 10843.356991712 
764, 12528.0286468029 
765, 15080.9162761302 
766, 18400.5158343408 
767, 21988.3006906934 
768, 25085.0433049345 
769, 27226.4365449751 
770, 28415.2725347036 
771, 28993.3042788223 
772, 29211.603282917 
773, 29259.142910434 
774, 29235.0098151432 
775, 29157.9720843982 
776, 29058.0114453436 
777, 28955.7867106108 
778, 28825.569016978 
779, 28671.1678258038 
780, 28513.786312901 
781, 28382.1970836493 
782, 28240.964527231 
783, 28074.801681033 
784, 27886.8631525759 
785, 27702.5031803885 
786, 27521.8249280551 
787, 27317.596512996 
788, 27066.1532977808 
789, 26773.4059180979 
790, 26457.4341943056 
791, 26125.4008026867 
792, 25783.3237525615 
793, 25448.7948997655 
794, 25171.1008234135 
795, 24980.0791959143 
796, 24877.2730692213 
797, 24796.0811711153 
798, 24669.1033240075 
799, 24467.0044333348 
800, 24209.83279179 
801, 23931.6660870562 
802, 23668.4859655402 
803, 23434.8860618977 
804, 23201.2923998147 
805, 22989.5331434952 
806, 22790.747027039 
807, 22581.1125980892 
808, 22326.4806289247 
809, 22033.512620815 
810, 21719.8131058486 
811, 21398.7523164591 
812, 21031.6576187395 
813, 20561.884789305 
814, 19976.2941657453 
815, 19313.9233892725 
816, 18683.5565213507 
817, 18168.1187534105 
818, 17821.4055811848 
819, 17662.377322117 
820, 17572.9896081875 
821, 17464.6516022888 
822, 17298.8225382917 
823, 17117.8215846856 
824, 16983.2535767021 
825, 16951.2222327469 
826, 17006.6809873795 
827, 16929.8093613011 
828, 16722.1134574861 
829, 16455.7058771819 
830, 16230.7351092285 
831, 16064.4057310672 
832, 15927.3124308854 
833, 15805.8967837045 
834, 15704.5629263295 
835, 15635.8215002957 
836, 15583.7265448044 
837, 15521.0355991066 
838, 15415.3060057399 
839, 15274.3646558448 
840, 15112.4763831736 
841, 14940.7941583792 
842, 14761.4841944715 
843, 14577.7763751702 
844, 14396.4766838381 
845, 14221.9086399955 
846, 14054.8185620156 
847, 13853.8959845114 
848, 13614.8040394193 
849, 13351.0874134227 
850, 13086.2673277222 
851, 12782.5437162143 
852, 12469.0746520996 
853, 12202.5313961345 
854, 12002.3047317066 
855, 11840.3730629143 
856, 11761.0667710877 
857, 11828.2289744279 
858, 11941.170499141 
859, 11962.5016860706 
860, 11869.436978993 
861, 11740.4534519007 
862, 11584.8972661788 
863, 11383.0477818635 
864, 11138.5138726085 
865, 10886.2435875082 
866, 10649.1864185235 
867, 10448.0736072394 
868, 10315.3200927821 
869, 10296.1972670038 
870, 10320.6200504576 
871, 10311.322314183 
872, 10230.9149525863 
873, 10112.6210317838 
874, 9985.06201068666 
875, 9858.64446963609 
876, 9735.1010638111 
877, 9611.95024601273 
878, 9491.95715465819 
879, 9375.50076385496 
880, 9260.78707392651 
881, 9142.48273230763 
882, 9022.39544581431 
883, 8908.26399934504 
884, 8805.18667592367 
885, 8704.339426419 
886, 8593.95622700152 
887, 8475.42742720399 
888, 8356.27698581822 
889, 8241.61454848621 
890, 8130.64438161251 
891, 8009.52159788932 
892, 7860.94283790964 
893, 7681.52394543648 
894, 7474.33213570144 
895, 7244.96552958652 
896, 7001.21027661772 
897, 6750.81166182702 
898, 6513.30782881181 
899, 6313.20797017088 
900, 6171.37453483598 
901, 6083.8705859794 
902, 6038.19922887069 
903, 6016.67942629025 
904, 5998.4742767912 
905, 5963.05480444451 
906, 5899.48223340973 
907, 5798.90075342653 
908, 5660.37349846543 
909, 5511.23103648632 
910, 5383.34603573625 
911, 5289.47831926629 
912, 5223.75221774697 
913, 5169.66743983437 
914, 5113.93827325164 
915, 5055.58314542752 
916, 5003.07046857859 
917, 4962.94506457166 
918, 4930.43331677007 
919, 4899.46886753069 
920, 4865.15452214444 
921, 4830.57248377522 
922, 4785.75886914778 
923, 4723.16372449817 
924, 4638.5490218501 
925, 4529.39418023192 
926, 4399.71000807842 
927, 4246.2542850641 
928, 4060.77670737688 
929, 3837.45108570822 
930, 3585.71402530749 
931, 3318.70541218453 
932, 3053.69886651823 
933, 2815.63694898751 
934, 2625.39010414985 
935, 2495.17469701211 
936, 2426.81564570912 
937, 2409.35030931656 
938, 2423.72786040559 
939, 2449.45383986528 
940, 2470.83502724104 
941, 2489.85418457855 
942, 2495.78933594031 
943, 2475.64203568918 
944, 2425.26590331899 
945, 2367.2758367396 
946, 2317.78086332973 
947, 2285.86913611283 
948, 2272.36783613061 
949, 2268.53720037284 
950, 2264.49389856006 
951, 2256.93984197447 
952, 2246.2103498565 
953, 2233.88222142182 
954, 2221.70182531741 
955, 2210.61650358638 
956, 2201.12034730906 
957, 2193.44484154785 
958, 2190.74907635733 
959, 2189.40571999777 
960, 2187.76266798724 
961, 2189.39239689486 
962, 2190.32182384052 
963, 2193.94784652571 
964, 2201.02332502528 
965, 2207.39667506606 
966, 2208.43782845407 
967, 2206.15332278578 
968, 2200.734301562 
969, 2190.2783481262 
970, 2176.95995515664 
971, 2159.78910498903 
972, 2136.13659130383 
973, 2103.94304265381 
974, 2066.79935952672 
975, 2029.45548177234 
976, 1994.50927450192 
977, 1962.89140562235 
978, 1934.6761096665 
979, 1911.90391057626 
980, 1894.33033170385 
981, 1878.85858643291 
982, 1858.64749263657 
983, 1838.60556213411 
984, 1817.81771800318 
985, 1794.71108522023 
986, 1769.16302414672 
987, 1741.33853360523 
988, 1712.6876059346 
989, 1683.34315573666 
990, 1652.28244592563 
991, 1622.73914099058 
992, 1593.42391521796 
993, 1563.13394458001 
994, 1531.80358442745 
995, 1502.25537637984 
996, 1471.60674284509 
997, 1439.58495845708 
998, 1407.16217576461 
999, 1374.45318864242 
1000, 1343.1568168569 
1001, 8591.28971738827 
1002, 8596.25852575078 
1003, 8601.08136470524 
1004, 8616.63495251526 
1005, 8635.44691087944 
1006, 8665.33816582409 
1007, 8712.55518803927 
1008, 8764.67417630183 
1009, 8817.09285912384 
1010, 8877.33089493225 
1011, 8937.23664171233 
1012, 8996.9018091741 
1013, 9060.60110619925 
1014, 9123.25653330484 
1015, 9186.71897711339 
1016, 9256.4744598471 
1017, 9321.60660928774 
1018, 9388.37638397598 
1019, 9462.23833088375 
1020, 9531.1609563769 
1021, 9603.61395550709 
1022, 9675.18918768921 
1023, 9749.29505307923 
1024, 9821.21928575435 
1025, 9893.69694555895 
1026, 9961.36309470518 
1027, 10033.6547741061 
1028, 10104.3374362559 
1029, 10165.0123277619 
1030, 10228.179142294 
1031, 10281.7830244725 
1032, 10331.4373856627 
1033, 10387.6650174693 
1034, 10434.8903882061 
1035, 10478.7946649821 
1036, 10519.7839714659 
1037, 10556.5428430357 
1038, 10588.9270505197 
1039, 10624.7294820425 
1040, 10655.4839200293 
1041, 10685.7846675255 
1042, 10712.9811421245 
1043, 10730.2876555585 
1044, 10750.3906288698 
1045, 10769.6574619134 
1046, 10784.8302354412 
1047, 10802.5100635921 
1048, 10821.1495145253 
1049, 10836.8262815544 
1050, 10856.6277885725 
1051, 10883.4418760658 
1052, 10911.2989997076 
1053, 10938.2673030382 
1054, 10962.8397819984 
1055, 10987.6229789141 
1056, 11011.0961926235 
1057, 11036.7906079433 
1058, 11066.2180460363 
1059, 11106.4832524541 
1060, 11157.8056522117 
1061, 11221.1234292979 
1062, 11287.5234491796 
1063, 11365.1080994524 
1064, 11442.5563242119 
1065, 11525.627828435 
1066, 11618.2682686275 
1067, 11714.9429549617 
1068, 11820.9483151669 
1069, 11940.0935117016 
1070, 12069.2853741912 
1071, 12209.0551549046 
1072, 12352.5777282027 
1073, 12496.0203921141 
1074, 12645.3029217745 
1075, 12784.4193796497 
1076, 12922.8534602418 
1077, 13059.5633664836 
1078, 13178.474234815 
1079, 13283.2799725773 
1080, 13379.825829038 
1081, 13470.8146200689 
1082, 13557.7063659885 
1083, 13644.9507661022 
1084, 13727.2554759723 
1085, 13805.3208121458 
1086, 13878.7179418824 
1087, 13949.2504231225 
1088, 14010.107550687 
1089, 14073.1403814658 
1090, 14113.6158106088 
1091, 14138.2235461243 
1092, 14157.0941721807 
1093, 14155.6003452899 
1094, 14149.9825986182 
1095, 14145.7764783646 
1096, 14133.3940140071 
1097, 14125.4195957287 
1098, 14116.9834445687 
1099, 14108.9218886853 
1100, 14101.9928602485 
1101, 14093.5266293739 
1102, 14090.1626646921 
1103, 14071.9259723674 
1104, 14055.4271385616 
1105, 14024.5109962839 
1106, 13970.9289167517 
1107, 13888.33369617 
1108, 13750.6972923991 
1109, 13553.4631124946 
1110, 13275.6465829284 
1111, 12931.7771893796 
1112, 12527.7672575737 
1113, 12030.2414893827 
1114, 11536.2147305135 
1115, 10959.6143308493 
1116, 10437.4050752353 
1117, 9868.79285301143 
1118, 9388.74338790172 
1119, 8945.01016224955 
1120, 8538.98147469743 
1121, 8209.79161093568 
1122, 7947.51556672257 
1123, 7762.53847748133 
1124, 7644.15529263369 
1125, 7592.76942538252 
1126, 7638.4077891233 
1127, 7688.46625630081 
1128, 7804.98656146713 
1129, 7919.70574114273 
1130, 8074.35079531646 
1131, 8218.60125683113 
1132, 8355.71227254982 
1133, 8530.93510338852 
1134, 8714.56148050058 
1135, 8918.72086989763 
1136, 9210.40325380749 
1137, 9516.3274096751 
1138, 9818.96684889014 
1139, 10106.8480932471 
1140, 10303.4773056029 
1141, 10455.5117437191 
1142, 10532.9364712377 
1143, 10501.7508023276 
1144, 10502.1727932444 
1145, 10383.5548463014 
1146, 10401.2753546055 
1147, 10427.8163264209 
1148, 10555.9621668735 
1149, 10778.7835793987 
1150, 11051.982684315 
1151, 11407.8524033004 
1152, 11812.9895705774 
1153, 12234.9150619205 
1154, 12723.7537150958 
1155, 13185.6451625315 
1156, 13676.92147953 
1157, 14136.7064302039 
1158, 14601.2428499551 
1159, 15035.1586185502 
1160, 15458.5944155006 
1161, 15847.65017652 
1162, 16216.9851714838 
1163, 16556.6621763611 
1164, 16868.8151077277 
1165, 17147.7717512303 
1166, 17404.1092582988 
1167, 17626.2204149274 
1168, 17819.3387761 
1169, 17979.1443153879 
1170, 18117.2305566491 
1171, 18224.569784166 
1172, 18312.739250857 
1173, 18373.2417922141 
1174, 18419.021836407 
1175, 18437.5148716453 
1176, 18448.8591370547 
1177, 18434.9734221497 
