Wavelength,0212202100079.asd
350, 516.608334980304 
351, 543.784162971453 
352, 569.762062104654 
353, 591.464181276556 
354, 611.638164543593 
355, 631.988187097375 
356, 653.575795943827 
357, 676.446770579972 
358, 699.572417215699 
359, 724.430472011504 
360, 753.389502671558 
361, 785.700767007955 
362, 824.429193751724 
363, 867.455171533439 
364, 908.053608996642 
365, 952.497288122469 
366, 994.329373497155 
367, 1029.00548085008 
368, 1060.41561214968 
369, 1077.42008771715 
370, 1082.5779710368 
371, 1082.24963080114 
372, 1076.1468242409 
373, 1074.70575237308 
374, 1077.73551201094 
375, 1078.42097550126 
376, 1081.28584151725 
377, 1084.07171001278 
378, 1083.42049726746 
379, 1075.70126594371 
380, 1063.91220989867 
381, 1049.20350465388 
382, 1031.71351101683 
383, 1009.20229896031 
384, 988.228077346807 
385, 974.837273275411 
386, 975.017858157335 
387, 997.484265550509 
388, 1028.22502686163 
389, 1054.09099495434 
390, 1066.24263574628 
391, 1077.60913282142 
392, 1088.93847141214 
393, 1098.85903263202 
394, 1104.64931222926 
395, 1127.13806018931 
396, 1172.81044260978 
397, 1242.20932072932 
398, 1340.10657753466 
399, 1453.72049823699 
400, 1571.52363686221 
401, 1684.5303128847 
402, 1791.26556232615 
403, 1877.92389600319 
404, 1939.59997650474 
405, 1990.40655487112 
406, 2028.75692505813 
407, 2062.08596116431 
408, 2100.57612979194 
409, 2153.17895761498 
410, 2216.11294326609 
411, 2285.35597957971 
412, 2356.99700185679 
413, 2427.20710978435 
414, 2498.10838012738 
415, 2568.28954074782 
416, 2628.52226929834 
417, 2684.50022420216 
418, 2741.73975096276 
419, 2802.42785215569 
420, 2855.51404578955 
421, 2908.70456204914 
422, 2966.9746116209 
423, 3031.27637377932 
424, 3089.40731967553 
425, 3135.21884784043 
426, 3163.25670101485 
427, 3166.86076552739 
428, 3156.66485862003 
429, 3158.51847309121 
430, 3194.21155956853 
431, 3251.39922783871 
432, 3328.37330414052 
433, 3441.16852695626 
434, 3611.3925257675 
435, 3791.26746644909 
436, 3928.90755238811 
437, 4013.66987327818 
438, 4102.27301716004 
439, 4193.18899860335 
440, 4280.1351266635 
441, 4360.73526153727 
442, 4463.26376070191 
443, 4571.65539596026 
444, 4671.75874521786 
445, 4753.1758235272 
446, 4817.39086359529 
447, 4874.90362196135 
448, 4936.74326742426 
449, 5013.70346692902 
450, 5081.38858262002 
451, 5118.67276611332 
452, 5115.73139783547 
453, 5103.78982580432 
454, 5076.12204641059 
455, 5040.4575334457 
456, 5017.56621340406 
457, 5013.02856621926 
458, 5014.7988796655 
459, 5011.30376801123 
460, 4999.7312262353 
461, 4981.77798209936 
462, 4962.59890903277 
463, 4945.02153135771 
464, 4913.2714754205 
465, 4862.49193511051 
466, 4799.7255697921 
467, 4742.99729646238 
468, 4697.01007653508 
469, 4661.94124807643 
470, 4638.14898012944 
471, 4632.3324507885 
472, 4628.28252274739 
473, 4627.70805874373 
474, 4637.45031983897 
475, 4637.27704460792 
476, 4632.72105098797 
477, 4630.40586206784 
478, 4635.14440037437 
479, 4650.76862465462 
480, 4671.48602764688 
481, 4686.71220480316 
482, 4682.98737445244 
483, 4649.15139961977 
484, 4577.8727289217 
485, 4470.32745786123 
486, 4362.04194530937 
487, 4284.21723480179 
488, 4262.2427386271 
489, 4316.70208806321 
490, 4396.24015210214 
491, 4459.43386779356 
492, 4482.57293395428 
493, 4491.70377512986 
494, 4504.73275669602 
495, 4530.8597891033 
496, 4568.51229541172 
497, 4580.10894786251 
498, 4567.0613826389 
499, 4537.98391943293 
500, 4498.06258137863 
501, 4469.08540058027 
502, 4458.71894256739 
503, 4468.95385279865 
504, 4509.89599862934 
505, 4568.18538055132 
506, 4628.17568522279 
507, 4674.36416812962 
508, 4709.15371215001 
509, 4736.42708320817 
510, 4762.42973662903 
511, 4799.8144453428 
512, 4824.11845379179 
513, 4826.65714878045 
514, 4808.6354034913 
515, 4773.03190289882 
516, 4721.10117634354 
517, 4665.71415099516 
518, 4634.77932869063 
519, 4673.54291915698 
520, 4786.25888854436 
521, 4945.91852792591 
522, 5078.05955251475 
523, 5176.32422281906 
524, 5245.75985791645 
525, 5298.75648005342 
526, 5322.50549790335 
527, 5331.20711177208 
528, 5356.97456502073 
529, 5463.67310329122 
530, 5602.99274254414 
531, 5720.23390652411 
532, 5771.05304464727 
533, 5788.14012773266 
534, 5814.49252620575 
535, 5872.86427957997 
536, 5960.85730931015 
537, 6024.6857014501 
538, 6054.3500883563 
539, 6057.69499897591 
540, 6054.77502451753 
541, 6058.53430631492 
542, 6088.01466413178 
543, 6158.528860522 
544, 6238.50975325885 
545, 6308.70344570608 
546, 6358.56821179684 
547, 6387.64906958831 
548, 6405.86765630686 
549, 6426.65847581602 
550, 6459.10115622465 
551, 6493.00450326853 
552, 6518.44501602032 
553, 6536.28994517886 
554, 6555.83954225528 
555, 6572.46670473066 
556, 6566.64211322359 
557, 6528.27962547742 
558, 6469.3831217041 
559, 6418.13605298802 
560, 6393.62541406939 
561, 6404.23167378196 
562, 6433.34952667245 
563, 6451.35096108004 
564, 6442.86018695902 
565, 6410.89745169752 
566, 6364.86169566355 
567, 6319.00991333845 
568, 6281.56350161628 
569, 6240.75404758878 
570, 6189.1979603454 
571, 6141.47730951588 
572, 6123.52328056111 
573, 6127.64913943803 
574, 6126.00956897593 
575, 6099.94333284817 
576, 6049.0795763159 
577, 6001.78035068134 
578, 5975.68678661119 
579, 5980.18221491577 
580, 6009.20936798849 
581, 6061.37222567447 
582, 6125.06540018494 
583, 6179.48005548584 
584, 6214.83849915435 
585, 6214.22333506381 
586, 6174.48533392949 
587, 6124.55390876459 
588, 6063.80026783195 
589, 5982.35733696291 
590, 5879.61045214911 
591, 5842.74914068963 
592, 5871.35137256049 
593, 5923.67017486049 
594, 5918.5468498444 
595, 5885.25446699716 
596, 5839.79310902897 
597, 5792.95871154936 
598, 5743.26747751888 
599, 5684.28058833124 
600, 5618.83584916892 
601, 5557.20803130886 
602, 5512.10961125088 
603, 5487.52406070787 
604, 5480.70690206752 
605, 5482.22476333181 
606, 5468.59312455696 
607, 5436.84146890177 
608, 5394.70113075923 
609, 5355.2986513997 
610, 5317.86706554677 
611, 5282.93712756518 
612, 5252.42492573777 
613, 5219.24286156565 
614, 5182.2342789334 
615, 5143.93635515716 
616, 5111.29301619711 
617, 5089.81488507779 
618, 5087.45769064487 
619, 5107.77678487682 
620, 5127.42861816779 
621, 5126.1440547752 
622, 5097.89728640471 
623, 5053.6783153497 
624, 5003.23259272127 
625, 4954.43374471664 
626, 4911.89245837501 
627, 4874.39129897448 
628, 4837.30235405327 
629, 4801.823376912 
630, 4774.38134149568 
631, 4770.17166294445 
632, 4782.78195208412 
633, 4802.50634449757 
634, 4819.91720195613 
635, 4832.50871390325 
636, 4841.22014600003 
637, 4847.19480283871 
638, 4846.15943046774 
639, 4834.43397584702 
640, 4809.21182889158 
641, 4770.20211564924 
642, 4737.06536672644 
643, 4716.92615493011 
644, 4705.93585549283 
645, 4683.91774208359 
646, 4651.72880236895 
647, 4612.63116122104 
648, 4572.42440443771 
649, 4537.24261125617 
650, 4509.92022639906 
651, 4495.14518018082 
652, 4497.96092123752 
653, 4485.46948173515 
654, 4433.23152275497 
655, 4336.65480663779 
656, 4225.05931660987 
657, 4142.53484082335 
658, 4139.96980062982 
659, 4244.82677045606 
660, 4349.19568600172 
661, 4407.1283521017 
662, 4417.03315929931 
663, 4422.38252488211 
664, 4415.50208492067 
665, 4405.50304145019 
666, 4400.65417800251 
667, 4398.9811159333 
668, 4395.91939155412 
669, 4391.15956292845 
670, 4385.98868585387 
671, 4373.04542580072 
672, 4360.21232442089 
673, 4353.97259800819 
674, 4356.59380091402 
675, 4360.90740135647 
676, 4362.70622136556 
677, 4361.13316743521 
678, 4362.98380574339 
679, 4363.61261661653 
680, 4361.35530563053 
681, 4356.64078240245 
682, 4352.37198515422 
683, 4340.38932596239 
684, 4302.26048217642 
685, 4207.99080593188 
686, 4036.73805711641 
687, 3803.57603939958 
688, 3566.69440673004 
689, 3467.97203346013 
690, 3537.71920789806 
691, 3711.51873888105 
692, 3868.66397043905 
693, 4004.28332403442 
694, 4102.68623172105 
695, 4162.4170600168 
696, 4199.97735579777 
697, 4232.12080073516 
698, 4252.21573066757 
699, 4251.40773910395 
700, 4238.80943187406 
701, 4225.42356609811 
702, 4221.66911127024 
703, 4235.75147453694 
704, 4266.61449378169 
705, 4302.7340506916 
706, 4332.75343061448 
707, 4347.77846656621 
708, 4359.00445866237 
709, 4369.2677028505 
710, 4378.80802498515 
711, 4387.47817117415 
712, 4393.30305787773 
713, 4394.4860372818 
714, 4387.73976016788 
715, 4361.59172845354 
716, 4304.07513145626 
717, 4207.73658354558 
718, 4071.24634100982 
719, 3956.53451570445 
720, 3912.22775894284 
721, 3957.19635572824 
722, 4057.11069959809 
723, 4127.90670602103 
724, 4139.31766070073 
725, 4105.02851370834 
726, 4095.93444704188 
727, 4106.7456622032 
728, 4123.5330250456 
729, 4132.21451433786 
730, 4156.91741558066 
731, 4202.89184309142 
732, 4266.67049511706 
733, 4337.41295747934 
734, 4398.19407992012 
735, 4436.12695104423 
736, 4445.88363951366 
737, 4442.07841901935 
738, 4433.08570119066 
739, 4422.73320262757 
740, 4411.32261901929 
741, 4404.81050348789 
742, 4406.50039442354 
743, 4416.05923227595 
744, 4428.52134513336 
745, 4437.54514405677 
746, 4439.0628079714 
747, 4431.94257406909 
748, 4421.27718854192 
749, 4401.28449891757 
750, 4375.10869221198 
751, 4351.49963016333 
752, 4335.31509184289 
753, 4324.08810746537 
754, 4314.15095812398 
755, 4301.30494272671 
756, 4273.48867772594 
757, 4180.63492540929 
758, 3940.66355471973 
759, 3411.09782370122 
760, 2631.02479508356 
761, 1863.94224562688 
762, 1429.97620021944 
763, 1423.35716890893 
764, 1640.34825429577 
765, 1978.21977943879 
766, 2426.47628860824 
767, 2913.24819325572 
768, 3330.43454605814 
769, 3613.59174660994 
770, 3767.0305471015 
771, 3837.19737759104 
772, 3856.02771738251 
773, 3848.42870401 
774, 3832.73115153885 
775, 3810.45048928153 
776, 3785.88312349435 
777, 3762.04147504243 
778, 3732.98472098145 
779, 3701.77670715712 
780, 3671.27166852149 
781, 3643.22134653131 
782, 3615.76838741609 
783, 3584.18975534099 
784, 3548.64629571982 
785, 3517.08417959669 
786, 3485.53895372875 
787, 3451.06099046055 
788, 3411.60418541307 
789, 3366.81332701905 
790, 3319.866045181 
791, 3272.03354039406 
792, 3224.40868078599 
793, 3180.62149759808 
794, 3145.32865530467 
795, 3119.76185003093 
796, 3101.90704910688 
797, 3088.89223660867 
798, 3073.21041244031 
799, 3049.54115202403 
800, 3016.5208448966 
801, 2983.41033169488 
802, 2953.39057683061 
803, 2926.64559772008 
804, 2900.32365193514 
805, 2876.90371346421 
806, 2856.66380393176 
807, 2837.26143894485 
808, 2810.4391043368 
809, 2778.72540058651 
810, 2743.68248791162 
811, 2705.43310456662 
812, 2660.75073382769 
813, 2602.69368228459 
814, 2528.74719871053 
815, 2442.70585305924 
816, 2363.89057104288 
817, 2303.40120476449 
818, 2267.82284051667 
819, 2259.35629923149 
820, 2256.35499840131 
821, 2249.99176074503 
822, 2237.37361672305 
823, 2219.05811596163 
824, 2208.59655882132 
825, 2213.60905466085 
826, 2230.28855810534 
827, 2227.78927924682 
828, 2205.42814140326 
829, 2174.26641073985 
830, 2150.04458777805 
831, 2135.19705338611 
832, 2124.31626974836 
833, 2114.70252646521 
834, 2106.84097898912 
835, 2103.52573685613 
836, 2101.8533823528 
837, 2097.28125561344 
838, 2084.92972127612 
839, 2068.96074201437 
840, 2049.48291034125 
841, 2026.79320863076 
842, 2002.58309509091 
843, 1977.29176794507 
844, 1951.82421730407 
845, 1926.99276423655 
846, 1903.94194272883 
847, 1874.90299988695 
848, 1839.49880537221 
849, 1800.43255589789 
850, 1760.82480226587 
851, 1716.18686398443 
852, 1669.96829475934 
853, 1629.07982491071 
854, 1596.79570300419 
855, 1570.03349424234 
856, 1553.57247798784 
857, 1554.43922682705 
858, 1562.98745552307 
859, 1559.32913766444 
860, 1539.66291629581 
861, 1514.96582141545 
862, 1488.27681142283 
863, 1454.66420709366 
864, 1414.73348975759 
865, 1376.03948971704 
866, 1335.81345212722 
867, 1301.55943385404 
868, 1279.18519006949 
869, 1269.45471122313 
870, 1262.3980315628 
871, 1250.60223273028 
872, 1231.26613654112 
873, 1208.0704507886 
874, 1186.28993396096 
875, 1163.74947962637 
876, 1138.80684896038 
877, 1115.7935117933 
878, 1094.0911538304 
879, 1072.68999828813 
880, 1050.92644383276 
881, 1029.6856749164 
882, 1008.89072975424 
883, 989.307776649345 
884, 970.748600245551 
885, 948.709380030995 
886, 930.877861731072 
887, 914.172219340248 
888, 893.629101334178 
889, 875.479564385252 
890, 859.1885483611 
891, 841.802606064272 
892, 820.234072833721 
893, 796.013723140794 
894, 769.334123340021 
895, 740.688877659144 
896, 710.887586087837 
897, 680.96954289815 
898, 652.860494718124 
899, 629.514888876668 
900, 613.563002831784 
901, 603.705290639154 
902, 599.265962406242 
903, 596.771513481071 
904, 592.074781418765 
905, 587.730074496571 
906, 579.898042729228 
907, 567.968727013916 
908, 553.871789367612 
909, 537.594753083714 
910, 523.276724885363 
911, 512.677509094429 
912, 505.328469872434 
913, 501.196802361811 
914, 495.487759907911 
915, 488.162072879289 
916, 482.720963110764 
917, 479.681820431052 
918, 475.931088628847 
919, 472.228035128949 
920, 471.346729990018 
921, 469.313537622426 
922, 464.051548273774 
923, 455.897520402068 
924, 446.293303691887 
925, 432.325977819391 
926, 420.442480242234 
927, 408.177089316412 
928, 388.32618511562 
929, 365.069376536113 
930, 339.701498332989 
931, 312.56307718647 
932, 284.395423544427 
933, 260.352435742942 
934, 240.277213938354 
935, 226.537227062532 
936, 221.267483031016 
937, 219.139105897527 
938, 219.429094199047 
939, 221.627085974546 
940, 224.759357672248 
941, 225.797270923114 
942, 225.231970274903 
943, 222.964479038163 
944, 218.671180388071 
945, 211.93836221096 
946, 205.486675258915 
947, 200.928686164656 
948, 198.902197903511 
949, 199.301954257204 
950, 198.80260918904 
951, 196.804004427042 
952, 194.119173400674 
953, 192.23712834325 
954, 190.007913263429 
955, 187.138069018737 
956, 184.556401191729 
957, 184.819799688892 
958, 181.840969850245 
959, 179.93506898031 
960, 180.49964261297 
961, 177.295180430406 
962, 175.189115086794 
963, 174.845463547528 
964, 174.371775700837 
965, 170.622137686711 
966, 168.12556731682 
967, 166.41100305699 
968, 165.287675970399 
969, 164.708099252304 
970, 159.450775331545 
971, 154.534859889635 
972, 150.975526889551 
973, 146.67662660663 
974, 142.367544965701 
975, 137.025655746722 
976, 130.861271585252 
977, 125.108190456833 
978, 122.040602881381 
979, 118.912272509649 
980, 115.262559742378 
981, 111.396631180223 
982, 107.192663748413 
983, 104.480128726659 
984, 102.062625033857 
985, 98.6217921185991 
986, 94.2252145010671 
987, 91.6958845837817 
988, 88.8214840983833 
989, 84.2900714210681 
990, 79.1494058640848 
991, 76.1455257829152 
992, 73.5090054608545 
993, 70.7856803759327 
994, 68.604864599252 
995, 66.1749014288381 
996, 62.7919409342463 
997, 60.1557098759328 
998, 59.3227400792994 
999, 56.2454796579001 
1000, 53.3017277779162 
1001, 310.272978036955 
1002, 302.654658592391 
1003, 291.957606251442 
1004, 285.529125905206 
1005, 281.77735438515 
1006, 274.327774195919 
1007, 268.582455097066 
1008, 268.599179047332 
1009, 267.894321619461 
1010, 269.242948679292 
1011, 267.30208944988 
1012, 267.683503137321 
1013, 260.952194496816 
1014, 249.528711331486 
1015, 244.985975994875 
1016, 243.049073451164 
1017, 242.513977254232 
1018, 244.254325006741 
1019, 243.715304210785 
1020, 249.075371808861 
1021, 253.029256591821 
1022, 255.005322145931 
1023, 257.958011011411 
1024, 260.520380761937 
1025, 252.312234673308 
1026, 246.071339677441 
1027, 245.659210437978 
1028, 243.249096699985 
1029, 246.603739375355 
1030, 250.29797007343 
1031, 246.393974601534 
1032, 247.759822799497 
1033, 246.832347247053 
1034, 244.581174265152 
1035, 247.663729300727 
1036, 256.213207037522 
1037, 259.801237463441 
1038, 263.23151808398 
1039, 273.596278892542 
1040, 277.579241248028 
1041, 276.948283790676 
1042, 281.469678024209 
1043, 280.631192499499 
1044, 282.933467077136 
1045, 288.796284410196 
1046, 288.947731177254 
1047, 289.57697749426 
1048, 289.334731505976 
1049, 287.507149060573 
1050, 292.736302041775 
1051, 304.127624800231 
1052, 315.707641083005 
1053, 329.564318076491 
1054, 336.150669125012 
1055, 337.445233202278 
1056, 343.552592781405 
1057, 348.358549729598 
1058, 350.44843784455 
1059, 354.625805412728 
1060, 360.457923530886 
1061, 364.382750487235 
1062, 373.569263264518 
1063, 388.167494392953 
1064, 401.533580162612 
1065, 411.548095441847 
1066, 421.466248484553 
1067, 431.749779240242 
1068, 443.298541937559 
1069, 458.594114588234 
1070, 472.190823928014 
1071, 478.293938585138 
1072, 485.339168710987 
1073, 493.467378342256 
1074, 498.596198928773 
1075, 509.440570917683 
1076, 526.386730435118 
1077, 536.399003886931 
1078, 550.875394725328 
1079, 566.81755561478 
1080, 570.185203269692 
1081, 574.645972739979 
1082, 583.027885904195 
1083, 580.914109352041 
1084, 579.580430264297 
1085, 591.351413478271 
1086, 595.449193151923 
1087, 591.948554104952 
1088, 596.106768831718 
1089, 603.387065027632 
1090, 607.476339745964 
1091, 614.477406634162 
1092, 620.981276421793 
1093, 616.548419255984 
1094, 611.892872912782 
1095, 605.797528713307 
1096, 595.37240907125 
1097, 590.609227618798 
1098, 590.332476618433 
1099, 584.087179887809 
1100, 573.699818566313 
1101, 568.047408182297 
1102, 559.571259711423 
1103, 553.597028066189 
1104, 550.846139028202 
1105, 549.86630453866 
1106, 549.912370759143 
1107, 549.279352412942 
1108, 541.815835264416 
1109, 533.563327361723 
1110, 518.323204755695 
1111, 498.186285460149 
1112, 478.545115651764 
1113, 457.804737059957 
1114, 435.292206380418 
1115, 408.517322674372 
1116, 385.778195624811 
1117, 361.004674684586 
1118, 340.334682542724 
1119, 322.546155743288 
1120, 307.756521773074 
1121, 289.65290111879 
1122, 279.873970343868 
1123, 270.85570566553 
1124, 256.775029488259 
1125, 250.369940606294 
1126, 248.12498822963 
1127, 248.089962092592 
1128, 255.536336355613 
1129, 256.099534771249 
1130, 254.906686634583 
1131, 255.966639903044 
1132, 252.137359266176 
1133, 255.256827003112 
1134, 264.545567355996 
1135, 273.254974463504 
1136, 284.46763772073 
1137, 291.223759428517 
1138, 301.332753113256 
1139, 308.262804216739 
1140, 313.647261360618 
1141, 319.283245036021 
1142, 322.195398286308 
1143, 322.041466098718 
1144, 320.563907696462 
1145, 316.929882422251 
1146, 312.318900600888 
1147, 302.767900148719 
1148, 298.024062448441 
1149, 292.995274466709 
1150, 291.567097247711 
1151, 294.093075708365 
1152, 296.444846633425 
1153, 303.332278859712 
1154, 315.586224314586 
1155, 323.28664511826 
1156, 337.445960676107 
1157, 338.671188403223 
1158, 330.296354649546 
1159, 325.897976433447 
1160, 310.569462779937 
1161, 308.013695374142 
1162, 318.774888540164 
1163, 319.877900303101 
1164, 322.127729870564 
1165, 321.814563413482 
1166, 317.878068702507 
1167, 308.349728069329 
1168, 301.734479784633 
1169, 297.278422810136 
1170, 290.396002302289 
1171, 280.461949672602 
1172, 272.062143234911 
1173, 265.509862119231 
1174, 256.055560548522 
1175, 242.278581637519 
1176, 234.030169737752 
1177, 228.591091174104 
